s(m), v_par(m/s), v_perp(m/s)
0, 419383, 419383
4193.83, 419382, 419397
8387.64, 419381, 419411
12581.4, 419378, 419425
16775.2, 419375, 419439
20968.9, 419370, 419453
25162.6, 419364, 419467
29356.2, 419358, 419481
33549.8, 419350, 419495
37743.2, 419341, 419509
41936.6, 419332, 419523
46129.8, 419321, 419537
50323, 419309, 419551
54516, 419296, 419565
58708.9, 419282, 419579
62901.7, 419268, 419593
67094.3, 419252, 419607
71286.7, 419235, 419621
75479, 419217, 419635
79671, 419198, 419649
83862.9, 419178, 419663
88054.6, 419157, 419677
92246, 419135, 419691
96437.3, 419112, 419705
100628, 419088, 419719
104819, 419062, 419733
109010, 419036, 419747
113200, 419009, 419761
117390, 418981, 419793
121579, 418952, 419835
125769, 418922, 419877
129958, 418890, 419919
134147, 418858, 419961
138335, 418825, 420003
142523, 418790, 420045
146711, 418755, 420087
150898, 418719, 420129
155085, 418681, 420171
159272, 418643, 420213
163458, 418603, 420255
167644, 418563, 420297
171829, 418521, 420338
176014, 418479, 420380
180199, 418435, 420422
184383, 418391, 420464
188567, 418345, 420506
192750, 418298, 420548
196933, 418251, 420590
201115, 418202, 420632
205297, 418152, 420673
209478, 418102, 420715
213659, 418050, 420757
217839, 417997, 420799
222019, 417943, 420841
226198, 417889, 420882
230376, 417833, 420930
234554, 417776, 421000
238732, 417718, 421070
242909, 417659, 421139
247085, 417599, 421209
251261, 417538, 421278
255436, 417476, 421348
259610, 417413, 421417
263784, 417349, 421487
267957, 417284, 421556
272130, 417218, 421625
276302, 417151, 421695
280473, 417083, 421764
284643, 417014, 421834
288813, 416944, 421903
292982, 416873, 421972
297151, 416801, 422041
301318, 416728, 422111
305485, 416653, 422180
309651, 416578, 422249
313817, 416502, 422318
317981, 416425, 422387
322145, 416347, 422457
326308, 416267, 422526
330470, 416187, 422595
334632, 416106, 422664
338793, 416023, 422733
342952, 415940, 422802
347111, 415856, 422890
351269, 415770, 422987
355427, 415684, 423083
359583, 415596, 423180
363739, 415508, 423276
367893, 415418, 423372
372047, 415328, 423469
376200, 415237, 423565
380352, 415144, 423661
384503, 415051, 423758
388653, 414956, 423854
392802, 414860, 423950
396950, 414764, 424046
401097, 414666, 424142
405243, 414568, 424238
409389, 414468, 424334
413533, 414368, 424430
417676, 414266, 424526
421818, 414163, 424621
425959, 414060, 424717
430099, 413955, 424813
434238, 413849, 424908
438376, 413743, 425004
442513, 413635, 425100
446649, 413526, 425195
450784, 413416, 425291
454917, 413306, 425386
459050, 413194, 425482
463181, 413081, 425605
467311, 412967, 425727
471440, 412853, 425850
475568, 412737, 425972
479695, 412620, 426094
483821, 412502, 426217
487945, 412384, 426339
492068, 412264, 426461
496190, 412143, 426583
500311, 412021, 426705
504431, 411898, 426827
508549, 411774, 426948
512666, 411650, 427070
516782, 411524, 427192
520897, 411397, 427313
525010, 411269, 427435
529122, 411140, 427556
533233, 411010, 427678
537342, 410879, 427799
541451, 410747, 427920
545557, 410614, 428041
549663, 410481, 428162
553767, 410346, 428283
557870, 410210, 428404
561971, 410073, 428525
566071, 409935, 428646
570170, 409796, 428767
574267, 409656, 428891
578363, 409515, 429039
582457, 409373, 429186
586550, 409230, 429333
590642, 409086, 429480
594732, 408941, 429627
598821, 408796, 429774
602908, 408649, 429920
606994, 408501, 430067
611078, 408352, 430213
615161, 408202, 430360
619242, 408051, 430506
623322, 407899, 430652
627400, 407746, 430798
631477, 407592, 430944
635552, 407437, 431090
639626, 407281, 431236
643698, 407124, 431382
647768, 406967, 431527
651837, 406808, 431673
655904, 406648, 431818
659970, 406487, 431963
664034, 406325, 432109
668096, 406162, 432254
672157, 405998, 432399
676216, 405833, 432543
680274, 405668, 432688
684330, 405501, 432833
688384, 405333, 432977
692436, 405164, 433148
696487, 404994, 433318
700536, 404823, 433489
704584, 404652, 433659
708629, 404479, 433829
712673, 404305, 433999
716715, 404130, 434169
720756, 403955, 434338
724794, 403778, 434508
728831, 403600, 434677
732866, 403421, 434847
736900, 403242, 435016
740931, 403061, 435185
744961, 402879, 435353
748989, 402697, 435522
753015, 402513, 435691
757039, 402329, 435859
761061, 402143, 436027
765082, 401956, 436195
769101, 401769, 436363
773117, 401580, 436531
777132, 401391, 436699
781145, 401200, 436866
785156, 401009, 437034
789165, 400816, 437201
793172, 400623, 437368
797178, 400428, 437535
801181, 400233, 437702
805182, 400036, 437882
809182, 399839, 438074
813179, 399641, 438266
817175, 399441, 438458
821168, 399241, 438649
825159, 399040, 438841
829149, 398838, 439032
833136, 398634, 439223
837121, 398430, 439414
841105, 398225, 439605
845086, 398019, 439795
849065, 397812, 439985
853042, 397604, 440176
857017, 397394, 440366
860990, 397184, 440555
864961, 396973, 440745
868930, 396761, 440934
872896, 396548, 441124
876860, 396335, 441313
880823, 396120, 441502
884783, 395904, 441690
888741, 395687, 441879
892697, 395469, 442067
896650, 395250, 442255
900602, 395031, 442443
904551, 394810, 442631
908498, 394588, 442818
912443, 394366, 443006
916385, 394142, 443193
920325, 393918, 443396
924263, 393692, 443608
928199, 393466, 443819
932133, 393238, 444030
936064, 393010, 444241
939993, 392780, 444452
943920, 392550, 444663
947844, 392319, 444873
951766, 392086, 445083
955686, 391853, 445293
959603, 391619, 445503
963518, 391384, 445713
967431, 391148, 445922
971341, 390911, 446131
975249, 390673, 446340
979154, 390434, 446548
983058, 390194, 446757
986958, 389953, 446965
990857, 389711, 447173
994753, 389469, 447381
998646, 389225, 447588
1.00254e+06, 388980, 447795
1.00643e+06, 388735, 448002
1.01031e+06, 388488, 448209
1.0142e+06, 388240, 448416
1.01808e+06, 387992, 448622
1.02196e+06, 387743, 448828
1.02583e+06, 387492, 449034
1.02971e+06, 387241, 449240
1.03358e+06, 386989, 449451
1.03744e+06, 386735, 449681
1.04131e+06, 386481, 449910
1.04517e+06, 386226, 450139
1.04904e+06, 385970, 450367
1.05289e+06, 385713, 450595
1.05675e+06, 385455, 450824
1.0606e+06, 385196, 451051
1.06445e+06, 384937, 451279
1.0683e+06, 384676, 451506
1.07215e+06, 384414, 451733
1.07599e+06, 384151, 451960
1.07983e+06, 383888, 452186
1.08367e+06, 383623, 452412
1.0875e+06, 383358, 452638
1.09133e+06, 383092, 452863
1.09516e+06, 382824, 453089
1.09899e+06, 382556, 453314
1.10282e+06, 382287, 453539
1.10664e+06, 382017, 453763
1.11046e+06, 381746, 453987
1.11427e+06, 381474, 454211
1.11809e+06, 381201, 454435
1.1219e+06, 380927, 454658
1.1257e+06, 380652, 454882
1.12951e+06, 380376, 455105
1.13331e+06, 380100, 455327
1.13711e+06, 379822, 455550
1.14091e+06, 379543, 455772
1.1447e+06, 379264, 455993
1.14849e+06, 378984, 456222
1.15228e+06, 378702, 456467
1.15607e+06, 378420, 456711
1.15985e+06, 378137, 456955
1.16363e+06, 377853, 457198
1.16741e+06, 377568, 457442
1.17118e+06, 377282, 457685
1.17495e+06, 376995, 457927
1.17872e+06, 376707, 458170
1.18249e+06, 376419, 458412
1.18625e+06, 376129, 458654
1.19001e+06, 375839, 458895
1.19377e+06, 375547, 459136
1.19752e+06, 375255, 459377
1.20127e+06, 374962, 459617
1.20502e+06, 374667, 459857
1.20876e+06, 374372, 460097
1.21251e+06, 374076, 460337
1.21625e+06, 373779, 460576
1.21998e+06, 373481, 460815
1.22372e+06, 373183, 461054
1.22745e+06, 372883, 461292
1.23117e+06, 372582, 461530
1.2349e+06, 372281, 461767
1.23862e+06, 371978, 462005
1.24234e+06, 371675, 462242
1.24605e+06, 371371, 462478
1.24976e+06, 371066, 462715
1.25347e+06, 370760, 462951
1.25718e+06, 370453, 463187
1.26088e+06, 370145, 463422
1.26458e+06, 369836, 463673
1.26828e+06, 369526, 463930
1.27197e+06, 369216, 464187
1.27566e+06, 368904, 464443
1.27935e+06, 368592, 464699
1.28304e+06, 368279, 464955
1.28672e+06, 367965, 465210
1.2904e+06, 367649, 465465
1.29407e+06, 367333, 465720
1.29774e+06, 367017, 465974
1.30141e+06, 366699, 466228
1.30508e+06, 366380, 466482
1.30874e+06, 366061, 466735
1.3124e+06, 365740, 466988
1.31605e+06, 365419, 467240
1.31971e+06, 365097, 467492
1.32335e+06, 364773, 467744
1.327e+06, 364449, 467995
1.33064e+06, 364124, 468247
1.33428e+06, 363799, 468497
1.33792e+06, 363472, 468748
1.34155e+06, 363144, 468998
1.34518e+06, 362816, 469247
1.34881e+06, 362486, 469496
1.35243e+06, 362156, 469745
1.35605e+06, 361825, 469994
1.35967e+06, 361493, 470242
1.36328e+06, 361160, 470490
1.36689e+06, 360826, 470737
1.3705e+06, 360492, 470985
1.3741e+06, 360156, 471231
1.3777e+06, 359820, 471483
1.3813e+06, 359482, 471751
1.38489e+06, 359144, 472018
1.38848e+06, 358805, 472284
1.39207e+06, 358465, 472551
1.39565e+06, 358124, 472816
1.39923e+06, 357783, 473082
1.40281e+06, 357440, 473347
1.40638e+06, 357097, 473611
1.40995e+06, 356752, 473876
1.41351e+06, 356407, 474139
1.41708e+06, 356061, 474403
1.42064e+06, 355714, 474666
1.42419e+06, 355366, 474928
1.42774e+06, 355017, 475191
1.43129e+06, 354668, 475452
1.43484e+06, 354318, 475714
1.43838e+06, 353966, 475975
1.44192e+06, 353614, 476235
1.44545e+06, 353261, 476496
1.44898e+06, 352907, 476755
1.45251e+06, 352552, 477015
1.45603e+06, 352197, 477274
1.45955e+06, 351840, 477532
1.46307e+06, 351483, 477790
1.46658e+06, 351125, 478048
1.47009e+06, 350766, 478306
1.4736e+06, 350406, 478563
1.4771e+06, 350045, 478819
1.4806e+06, 349684, 479075
1.48409e+06, 349321, 479331
1.48758e+06, 348958, 479586
1.49107e+06, 348594, 479841
1.49456e+06, 348229, 480114
1.49804e+06, 347863, 480388
1.50151e+06, 347496, 480662
1.50499e+06, 347128, 480936
1.50846e+06, 346760, 481209
1.51192e+06, 346391, 481482
1.51538e+06, 346021, 481754
1.51884e+06, 345650, 482026
1.5223e+06, 345278, 482297
1.52575e+06, 344905, 482568
1.52919e+06, 344532, 482838
1.53264e+06, 344157, 483108
1.53608e+06, 343782, 483378
1.53951e+06, 343406, 483647
1.54295e+06, 343029, 483916
1.54637e+06, 342652, 484184
1.5498e+06, 342273, 484452
1.55322e+06, 341894, 484719
1.55664e+06, 341513, 484986
1.56005e+06, 341132, 485253
1.56346e+06, 340750, 485519
1.56686e+06, 340368, 485784
1.57027e+06, 339984, 486049
1.57366e+06, 339600, 486314
1.57706e+06, 339215, 486578
1.58045e+06, 338829, 486842
1.58384e+06, 338442, 487106
1.58722e+06, 338054, 487368
1.5906e+06, 337665, 487631
1.59397e+06, 337276, 487893
1.59734e+06, 336886, 488155
1.60071e+06, 336495, 488416
1.60407e+06, 336103, 488676
1.60743e+06, 335710, 488944
1.61079e+06, 335317, 489223
1.61414e+06, 334923, 489501
1.61748e+06, 334528, 489779
1.62083e+06, 334132, 490057
1.62417e+06, 333735, 490334
1.6275e+06, 333337, 490611
1.63083e+06, 332939, 490887
1.63416e+06, 332540, 491162
1.63748e+06, 332140, 491438
1.6408e+06, 331739, 491712
1.64412e+06, 331337, 491986
1.64743e+06, 330935, 492260
1.65074e+06, 330532, 492533
1.65404e+06, 330128, 492806
1.65734e+06, 329723, 493078
1.66064e+06, 329317, 493350
1.66393e+06, 328911, 493622
1.66721e+06, 328503, 493892
1.6705e+06, 328095, 494163
1.67378e+06, 327687, 494433
1.67705e+06, 327277, 494702
1.68032e+06, 326866, 494971
1.68359e+06, 326455, 495239
1.68685e+06, 326043, 495507
1.69011e+06, 325630, 495774
1.69336e+06, 325217, 496041
1.69661e+06, 324802, 496308
1.69986e+06, 324387, 496574
1.7031e+06, 323971, 496839
1.70634e+06, 323554, 497104
1.70957e+06, 323136, 497369
1.7128e+06, 322718, 497633
1.71603e+06, 322299, 497896
1.71925e+06, 321879, 498160
1.72246e+06, 321458, 498431
1.72568e+06, 321036, 498711
1.72888e+06, 320614, 498990
1.73209e+06, 320191, 499270
1.73529e+06, 319767, 499548
1.73848e+06, 319342, 499826
1.74168e+06, 318917, 500104
1.74486e+06, 318490, 500381
1.74804e+06, 318063, 500657
1.75122e+06, 317636, 500933
1.7544e+06, 317207, 501209
1.75757e+06, 316778, 501484
1.76073e+06, 316347, 501758
1.76389e+06, 315916, 502032
1.76705e+06, 315485, 502305
1.7702e+06, 315052, 502578
1.77335e+06, 314619, 502851
1.7765e+06, 314185, 503122
1.77964e+06, 313750, 503394
1.78277e+06, 313315, 503664
1.7859e+06, 312878, 503935
1.78903e+06, 312441, 504204
1.79215e+06, 312003, 504474
1.79527e+06, 311565, 504742
1.79838e+06, 311126, 505010
1.80149e+06, 310685, 505278
1.8046e+06, 310245, 505545
1.8077e+06, 309803, 505812
1.81079e+06, 309360, 506078
1.81388e+06, 308917, 506343
1.81697e+06, 308473, 506608
1.82005e+06, 308029, 506873
1.82313e+06, 307583, 507137
1.8262e+06, 307137, 507400
1.82927e+06, 306690, 507663
1.83234e+06, 306243, 507926
1.8354e+06, 305794, 508188
1.83845e+06, 305345, 508464
1.84151e+06, 304895, 508742
1.84455e+06, 304444, 509019
1.84759e+06, 303993, 509296
1.85063e+06, 303541, 509572
1.85367e+06, 303088, 509847
1.85669e+06, 302634, 510122
1.85972e+06, 302180, 510397
1.86274e+06, 301725, 510670
1.86575e+06, 301269, 510944
1.86876e+06, 300812, 511216
1.87177e+06, 300355, 511488
1.87477e+06, 299897, 511760
1.87777e+06, 299438, 512031
1.88076e+06, 298979, 512301
1.88375e+06, 298518, 512571
1.88673e+06, 298057, 512840
1.88971e+06, 297596, 513109
1.89268e+06, 297133, 513377
1.89565e+06, 296670, 513645
1.89861e+06, 296206, 513912
1.90157e+06, 295742, 514179
1.90453e+06, 295276, 514445
1.90748e+06, 294810, 514710
1.91043e+06, 294343, 514975
1.91337e+06, 293876, 515239
1.9163e+06, 293408, 515503
1.91923e+06, 292939, 515766
1.92216e+06, 292469, 516029
1.92508e+06, 291999, 516291
1.928e+06, 291528, 516552
1.93091e+06, 291056, 516813
1.93382e+06, 290583, 517074
1.93673e+06, 290110, 517334
1.93963e+06, 289636, 517593
1.94252e+06, 289162, 517852
1.94541e+06, 288686, 518110
1.94829e+06, 288210, 518367
1.95117e+06, 287733, 518629
1.95405e+06, 287256, 518901
1.95692e+06, 286778, 519172
1.95978e+06, 286299, 519443
1.96264e+06, 285819, 519713
1.9655e+06, 285339, 519983
1.96835e+06, 284858, 520252
1.9712e+06, 284377, 520521
1.97404e+06, 283894, 520789
1.97687e+06, 283411, 521056
1.97971e+06, 282927, 521323
1.98253e+06, 282443, 521589
1.98536e+06, 281958, 521854
1.98817e+06, 281472, 522119
1.99098e+06, 280986, 522384
1.99379e+06, 280498, 522647
1.99659e+06, 280011, 522911
1.99939e+06, 279522, 523173
2.00219e+06, 279033, 523435
2.00497e+06, 278543, 523697
2.00776e+06, 278052, 523958
2.01053e+06, 277561, 524218
2.01331e+06, 277069, 524477
2.01608e+06, 276576, 524736
2.01884e+06, 276083, 524995
2.0216e+06, 275589, 525253
2.02435e+06, 275094, 525510
2.0271e+06, 274599, 525767
2.02984e+06, 274103, 526023
2.03258e+06, 273606, 526278
2.03531e+06, 273109, 526533
2.03804e+06, 272611, 526788
2.04077e+06, 272112, 527042
2.04349e+06, 271613, 527295
2.0462e+06, 271113, 527547
2.04891e+06, 270612, 527799
2.05161e+06, 270111, 528051
2.05431e+06, 269609, 528302
2.057e+06, 269106, 528552
2.05969e+06, 268603, 528802
2.06238e+06, 268099, 529051
2.06505e+06, 267594, 529299
2.06773e+06, 267089, 529561
2.0704e+06, 266583, 529822
2.07306e+06, 266077, 530083
2.07572e+06, 265569, 530343
2.07837e+06, 265061, 530603
2.08102e+06, 264553, 530862
2.08366e+06, 264044, 531120
2.0863e+06, 263534, 531378
2.08893e+06, 263023, 531635
2.09156e+06, 262512, 531891
2.09418e+06, 262001, 532147
2.0968e+06, 261488, 532402
2.09941e+06, 260975, 532657
2.10202e+06, 260462, 532911
2.10462e+06, 259947, 533164
2.10722e+06, 259432, 533417
2.10981e+06, 258917, 533669
2.1124e+06, 258400, 533921
2.11498e+06, 257884, 534171
2.11755e+06, 257366, 534422
2.12013e+06, 256848, 534671
2.12269e+06, 256329, 534920
2.12525e+06, 255810, 535169
2.12781e+06, 255290, 535417
2.13036e+06, 254769, 535664
2.1329e+06, 254248, 535910
2.13544e+06, 253726, 536156
2.13798e+06, 253204, 536401
2.14051e+06, 252681, 536646
2.14303e+06, 252157, 536890
2.14555e+06, 251633, 537134
2.14806e+06, 251108, 537376
2.15057e+06, 250582, 537619
2.15308e+06, 250056, 537860
2.15557e+06, 249529, 538101
2.15807e+06, 249002, 538342
2.16055e+06, 248474, 538581
2.16304e+06, 247945, 538821
2.16551e+06, 247416, 539059
2.16798e+06, 246886, 539297
2.17045e+06, 246356, 539534
2.17291e+06, 245825, 539771
2.17537e+06, 245293, 540007
2.17782e+06, 244761, 540242
2.18026e+06, 244228, 540479
2.1827e+06, 243695, 540726
2.18514e+06, 243161, 540972
2.18756e+06, 242626, 541218
2.18999e+06, 242091, 541463
2.19241e+06, 241555, 541707
2.19482e+06, 241019, 541951
2.19723e+06, 240482, 542194
2.19963e+06, 239944, 542436
2.20203e+06, 239406, 542678
2.20442e+06, 238867, 542919
2.2068e+06, 238328, 543159
2.20918e+06, 237788, 543399
2.21156e+06, 237247, 543638
2.21393e+06, 236706, 543876
2.21629e+06, 236165, 544114
2.21865e+06, 235623, 544351
2.22101e+06, 235080, 544588
2.22335e+06, 234536, 544823
2.2257e+06, 233992, 545059
2.22803e+06, 233448, 545293
2.23036e+06, 232903, 545527
2.23269e+06, 232357, 545760
2.23501e+06, 231811, 545993
2.23733e+06, 231264, 546225
2.23964e+06, 230717, 546456
2.24194e+06, 230169, 546687
2.24424e+06, 229620, 546917
2.24653e+06, 229071, 547146
2.24882e+06, 228522, 547375
2.2511e+06, 227972, 547603
2.25338e+06, 227421, 547830
2.25565e+06, 226870, 548057
2.25792e+06, 226318, 548283
2.26018e+06, 225765, 548509
2.26243e+06, 225212, 548733
2.26468e+06, 224659, 548958
2.26693e+06, 224105, 549181
2.26917e+06, 223550, 549404
2.2714e+06, 222995, 549626
2.27363e+06, 222439, 549848
2.27585e+06, 221883, 550069
2.27806e+06, 221326, 550289
2.28027e+06, 220769, 550509
2.28248e+06, 220211, 550728
2.28468e+06, 219653, 550947
2.28687e+06, 219094, 551164
2.28906e+06, 218535, 551381
2.29124e+06, 217975, 551598
2.29342e+06, 217414, 551814
2.29559e+06, 216853, 552034
2.29776e+06, 216291, 552260
2.29992e+06, 215729, 552484
2.30207e+06, 215167, 552709
2.30422e+06, 214603, 552932
2.30636e+06, 214040, 553155
2.3085e+06, 213476, 553377
2.31063e+06, 212911, 553599
2.31276e+06, 212346, 553820
2.31488e+06, 211780, 554040
2.31699e+06, 211213, 554259
2.3191e+06, 210647, 554478
2.32121e+06, 210079, 554696
2.32331e+06, 209511, 554914
2.3254e+06, 208943, 555131
2.32748e+06, 208374, 555347
2.32956e+06, 207805, 555562
2.33164e+06, 207235, 555777
2.33371e+06, 206665, 555991
2.33577e+06, 206094, 556205
2.33783e+06, 205522, 556417
2.33988e+06, 204950, 556629
2.34193e+06, 204378, 556841
2.34397e+06, 203805, 557052
2.34601e+06, 203232, 557262
2.34804e+06, 202658, 557471
2.35006e+06, 202083, 557680
2.35208e+06, 201509, 557888
2.35409e+06, 200933, 558095
2.3561e+06, 200357, 558302
2.3581e+06, 199781, 558508
2.36009e+06, 199204, 558713
2.36208e+06, 198627, 558918
2.36406e+06, 198049, 559122
2.36604e+06, 197471, 559326
2.36801e+06, 196892, 559528
2.36998e+06, 196313, 559730
2.37194e+06, 195733, 559932
2.37389e+06, 195153, 560132
2.37584e+06, 194572, 560332
2.37779e+06, 193991, 560532
2.37972e+06, 193409, 560730
2.38165e+06, 192827, 560929
2.38358e+06, 192244, 561126
2.3855e+06, 191661, 561323
2.38741e+06, 191078, 561519
2.38932e+06, 190494, 561714
2.39122e+06, 189909, 561909
2.39312e+06, 189324, 562103
2.39501e+06, 188739, 562296
2.39689e+06, 188153, 562489
2.39877e+06, 187567, 562681
2.40064e+06, 186980, 562872
2.40251e+06, 186393, 563063
2.40437e+06, 185805, 563253
2.40623e+06, 185217, 563442
2.40808e+06, 184628, 563631
2.40992e+06, 184039, 563822
2.41176e+06, 183450, 564019
2.41359e+06, 182860, 564214
2.41542e+06, 182269, 564409
2.41723e+06, 181678, 564604
2.41905e+06, 181087, 564798
2.42086e+06, 180495, 564991
2.42266e+06, 179903, 565183
2.42445e+06, 179311, 565375
2.42624e+06, 178718, 565566
2.42803e+06, 178124, 565756
2.42981e+06, 177530, 565945
2.43158e+06, 176936, 566134
2.43335e+06, 176341, 566322
2.43511e+06, 175746, 566510
2.43686e+06, 175150, 566697
2.43861e+06, 174554, 566883
2.44035e+06, 173957, 567068
2.44209e+06, 173361, 567253
2.44382e+06, 172763, 567437
2.44554e+06, 172165, 567620
2.44726e+06, 171567, 567803
2.44898e+06, 170969, 567985
2.45068e+06, 170370, 568166
2.45238e+06, 169770, 568346
2.45408e+06, 169170, 568526
2.45577e+06, 168570, 568705
2.45745e+06, 167969, 568884
2.45913e+06, 167368, 569062
2.4608e+06, 166767, 569239
2.46246e+06, 166165, 569415
2.46412e+06, 165562, 569591
2.46577e+06, 164960, 569766
2.46742e+06, 164357, 569940
2.46906e+06, 163753, 570113
2.47069e+06, 163149, 570286
2.47232e+06, 162545, 570459
2.47394e+06, 161940, 570630
2.47556e+06, 161335, 570801
2.47717e+06, 160729, 570971
2.47878e+06, 160123, 571140
2.48037e+06, 159517, 571309
2.48197e+06, 158910, 571477
2.48355e+06, 158303, 571645
