s(m), v_par(m/s), v_perp(m/s)
0, 513637, 296548
5136.37, 513637, 296561
10272.7, 513636, 296573
15409.1, 513634, 296585
20545.4, 513632, 296597
25681.7, 513629, 296609
30818, 513626, 296621
35954.2, 513622, 296634
41090.4, 513617, 296646
46226.6, 513612, 296658
51362.7, 513606, 296670
56498.7, 513599, 296682
61634.6, 513592, 296694
66770.5, 513584, 296706
71906.3, 513576, 296719
77042, 513566, 296731
82177.6, 513557, 296743
87313.2, 513546, 296755
92448.6, 513535, 296767
97583.9, 513524, 296779
102719, 513511, 296791
107854, 513499, 296803
112989, 513485, 296816
118124, 513471, 296844
123258, 513456, 296880
128393, 513441, 296917
133527, 513425, 296953
138661, 513408, 296989
143795, 513391, 297026
148929, 513373, 297062
154063, 513354, 297098
159196, 513335, 297135
164330, 513316, 297171
169463, 513295, 297207
174595, 513274, 297244
179728, 513252, 297280
184861, 513230, 297316
189993, 513207, 297353
195125, 513184, 297389
200256, 513160, 297425
205388, 513135, 297462
210519, 513109, 297498
215650, 513083, 297534
220781, 513057, 297571
225911, 513029, 297607
231041, 513001, 297651
236171, 512973, 297711
241301, 512944, 297771
246430, 512914, 297832
251559, 512883, 297892
256688, 512852, 297953
261816, 512821, 298013
266944, 512788, 298073
272072, 512755, 298134
277199, 512722, 298194
282326, 512688, 298254
287453, 512653, 298314
292579, 512617, 298375
297705, 512581, 298435
302831, 512544, 298495
307956, 512507, 298555
313081, 512469, 298616
318206, 512431, 298676
323330, 512391, 298736
328453, 512351, 298796
333577, 512311, 298856
338700, 512270, 298916
343822, 512228, 298976
348944, 512186, 299059
354066, 512143, 299143
359187, 512099, 299227
364308, 512055, 299311
369428, 512010, 299395
374548, 511965, 299479
379667, 511919, 299563
384786, 511872, 299646
389905, 511825, 299730
395023, 511777, 299814
400140, 511728, 299898
405257, 511679, 299982
410374, 511629, 300065
415490, 511578, 300149
420606, 511527, 300233
425721, 511476, 300316
430835, 511423, 300400
435949, 511370, 300484
441062, 511317, 300567
446175, 511262, 300651
451288, 511207, 300734
456399, 511152, 300818
461511, 511096, 300913
466621, 511039, 301020
471732, 510982, 301127
476841, 510924, 301234
481950, 510865, 301341
487058, 510806, 301448
492166, 510746, 301555
497273, 510686, 301662
502380, 510624, 301769
507486, 510563, 301876
512591, 510500, 301983
517696, 510437, 302089
522800, 510374, 302196
527903, 510310, 302302
533006, 510245, 302409
538108, 510179, 302515
543210, 510113, 302622
548310, 510046, 302728
553411, 509979, 302835
558510, 509911, 302941
563609, 509842, 303047
568707, 509773, 303153
573804, 509703, 303260
578901, 509633, 303390
583997, 509562, 303519
589092, 509490, 303649
594187, 509418, 303778
599280, 509345, 303908
604374, 509271, 304037
609466, 509197, 304166
614557, 509122, 304295
619648, 509047, 304424
624738, 508971, 304553
629828, 508894, 304682
634916, 508817, 304811
640004, 508739, 304940
645091, 508660, 305068
650177, 508581, 305197
655263, 508501, 305325
660347, 508421, 305454
665431, 508340, 305582
670514, 508258, 305710
675596, 508176, 305839
680678, 508093, 305967
685758, 508009, 306095
690838, 507925, 306234
695917, 507840, 306385
700995, 507755, 306536
706072, 507669, 306687
711148, 507582, 306838
716223, 507495, 306989
721298, 507407, 307140
726372, 507319, 307290
731444, 507230, 307441
736516, 507140, 307591
741587, 507050, 307741
746657, 506959, 307892
751726, 506867, 308042
756794, 506775, 308192
761862, 506682, 308342
766928, 506588, 308491
771993, 506494, 308641
777058, 506400, 308791
782121, 506304, 308940
787184, 506208, 309089
792246, 506112, 309239
797306, 506015, 309388
802366, 505917, 309537
807425, 505819, 309705
812482, 505720, 309877
817539, 505620, 310049
822595, 505520, 310220
827649, 505419, 310392
832703, 505317, 310563
837756, 505215, 310734
842807, 505112, 310905
847858, 505009, 311076
852908, 504905, 311247
857956, 504800, 311417
863004, 504695, 311588
868050, 504589, 311758
873095, 504483, 311928
878140, 504376, 312098
883183, 504268, 312268
888225, 504160, 312438
893266, 504051, 312608
898306, 503942, 312777
903345, 503831, 312947
908383, 503721, 313116
913419, 503609, 313285
918455, 503497, 313457
923489, 503385, 313648
928523, 503272, 313840
933555, 503158, 314031
938586, 503043, 314222
943616, 502928, 314413
948644, 502813, 314603
953672, 502696, 314794
958698, 502579, 314984
963723, 502462, 315174
968747, 502344, 315364
973770, 502225, 315554
978792, 502106, 315744
983812, 501986, 315933
988832, 501865, 316123
993850, 501744, 316312
998866, 501622, 316501
1.00388e+06, 501500, 316690
1.0089e+06, 501377, 316879
1.01391e+06, 501253, 317067
1.01892e+06, 501129, 317256
1.02393e+06, 501004, 317444
1.02894e+06, 500878, 317632
1.03395e+06, 500752, 317826
1.03896e+06, 500625, 318036
1.04396e+06, 500498, 318245
1.04897e+06, 500370, 318455
1.05397e+06, 500242, 318664
1.05897e+06, 500112, 318873
1.06397e+06, 499983, 319082
1.06897e+06, 499852, 319291
1.07397e+06, 499721, 319499
1.07897e+06, 499590, 319708
1.08396e+06, 499457, 319916
1.08895e+06, 499325, 320124
1.09395e+06, 499191, 320332
1.09894e+06, 499057, 320539
1.10393e+06, 498922, 320746
1.10892e+06, 498787, 320954
1.1139e+06, 498651, 321161
1.11889e+06, 498515, 321367
1.12387e+06, 498378, 321574
1.12886e+06, 498240, 321781
1.13384e+06, 498102, 321987
1.13882e+06, 497963, 322193
1.1438e+06, 497823, 322399
1.14878e+06, 497683, 322611
1.15375e+06, 497542, 322838
1.15873e+06, 497401, 323065
1.1637e+06, 497259, 323291
1.16867e+06, 497116, 323518
1.17364e+06, 496973, 323744
1.17861e+06, 496829, 323970
1.18358e+06, 496685, 324196
1.18855e+06, 496540, 324421
1.19351e+06, 496394, 324647
1.19847e+06, 496248, 324872
1.20343e+06, 496101, 325097
1.2084e+06, 495954, 325321
1.21335e+06, 495806, 325546
1.21831e+06, 495657, 325770
1.22327e+06, 495508, 325994
1.22822e+06, 495358, 326218
1.23317e+06, 495208, 326441
1.23813e+06, 495057, 326664
1.24308e+06, 494905, 326888
1.24802e+06, 494753, 327110
1.25297e+06, 494600, 327333
1.25792e+06, 494446, 327555
1.26286e+06, 494292, 327781
1.2678e+06, 494137, 328024
1.27274e+06, 493982, 328267
1.27768e+06, 493826, 328510
1.28262e+06, 493670, 328752
1.28755e+06, 493513, 328994
1.29249e+06, 493355, 329236
1.29742e+06, 493196, 329478
1.30235e+06, 493038, 329719
1.30728e+06, 492878, 329960
1.31221e+06, 492718, 330201
1.31714e+06, 492557, 330442
1.32206e+06, 492396, 330682
1.32698e+06, 492234, 330922
1.33191e+06, 492071, 331162
1.33683e+06, 491908, 331401
1.34174e+06, 491744, 331641
1.34666e+06, 491580, 331880
1.35158e+06, 491415, 332119
1.35649e+06, 491250, 332357
1.3614e+06, 491083, 332595
1.36631e+06, 490917, 332833
1.37122e+06, 490749, 333071
1.37613e+06, 490581, 333309
1.38103e+06, 490413, 333564
1.38593e+06, 490244, 333822
1.39084e+06, 490074, 334079
1.39574e+06, 489904, 334336
1.40063e+06, 489733, 334593
1.40553e+06, 489561, 334849
1.41042e+06, 489389, 335106
1.41532e+06, 489216, 335362
1.42021e+06, 489043, 335617
1.4251e+06, 488869, 335873
1.42999e+06, 488694, 336128
1.43487e+06, 488519, 336382
1.43976e+06, 488344, 336637
1.44464e+06, 488167, 336891
1.44952e+06, 487990, 337145
1.4544e+06, 487813, 337399
1.45928e+06, 487635, 337652
1.46415e+06, 487456, 337905
1.46903e+06, 487277, 338158
1.4739e+06, 487097, 338410
1.47877e+06, 486916, 338663
1.48364e+06, 486735, 338915
1.4885e+06, 486554, 339166
1.49337e+06, 486371, 339425
1.49823e+06, 486188, 339697
1.50309e+06, 486005, 339967
1.50795e+06, 485821, 340238
1.51281e+06, 485636, 340508
1.51766e+06, 485451, 340778
1.52252e+06, 485265, 341048
1.52737e+06, 485079, 341317
1.53222e+06, 484892, 341586
1.53707e+06, 484704, 341855
1.54191e+06, 484516, 342123
1.54676e+06, 484327, 342391
1.5516e+06, 484138, 342659
1.55644e+06, 483948, 342926
1.56128e+06, 483757, 343193
1.56611e+06, 483566, 343460
1.57095e+06, 483374, 343726
1.57578e+06, 483182, 343993
1.58061e+06, 482989, 344258
1.58544e+06, 482795, 344524
1.59027e+06, 482601, 344789
1.59509e+06, 482406, 345054
1.59992e+06, 482211, 345319
1.60474e+06, 482015, 345583
1.60956e+06, 481819, 345860
1.61437e+06, 481622, 346144
1.61919e+06, 481424, 346426
1.624e+06, 481226, 346709
1.62881e+06, 481027, 346991
1.63362e+06, 480827, 347273
1.63843e+06, 480627, 347554
1.64324e+06, 480427, 347835
1.64804e+06, 480225, 348116
1.65284e+06, 480024, 348396
1.65764e+06, 479821, 348677
1.66244e+06, 479618, 348956
1.66723e+06, 479415, 349236
1.67202e+06, 479211, 349515
1.67682e+06, 479006, 349793
1.6816e+06, 478801, 350072
1.68639e+06, 478595, 350350
1.69118e+06, 478388, 350627
1.69596e+06, 478181, 350905
1.70074e+06, 477974, 351182
1.70552e+06, 477765, 351458
1.7103e+06, 477557, 351735
1.71507e+06, 477347, 352011
1.71984e+06, 477137, 352286
1.72461e+06, 476927, 352576
1.72938e+06, 476715, 352870
1.73415e+06, 476504, 353164
1.73891e+06, 476291, 353457
1.74367e+06, 476079, 353750
1.74843e+06, 475865, 354042
1.75319e+06, 475651, 354334
1.75795e+06, 475436, 354626
1.7627e+06, 475221, 354917
1.76745e+06, 475005, 355208
1.7722e+06, 474789, 355499
1.77695e+06, 474572, 355789
1.78169e+06, 474354, 356079
1.78643e+06, 474136, 356368
1.79117e+06, 473918, 356657
1.79591e+06, 473698, 356946
1.80065e+06, 473479, 357234
1.80538e+06, 473258, 357522
1.81011e+06, 473037, 357810
1.81484e+06, 472815, 358097
1.81957e+06, 472593, 358384
1.82429e+06, 472371, 358670
1.82902e+06, 472147, 358957
1.83374e+06, 471923, 359242
1.83845e+06, 471699, 359539
1.84317e+06, 471474, 359842
1.84788e+06, 471248, 360145
1.8526e+06, 471022, 360448
1.8573e+06, 470795, 360750
1.86201e+06, 470568, 361052
1.86672e+06, 470340, 361353
1.87142e+06, 470111, 361654
1.87612e+06, 469882, 361955
1.88082e+06, 469653, 362255
1.88551e+06, 469422, 362555
1.8902e+06, 469192, 362855
1.89489e+06, 468960, 363154
1.89958e+06, 468728, 363452
1.90427e+06, 468496, 363751
1.90895e+06, 468263, 364049
1.91363e+06, 468029, 364346
1.91831e+06, 467795, 364643
1.92299e+06, 467560, 364940
1.92767e+06, 467324, 365236
1.93234e+06, 467088, 365532
1.93701e+06, 466852, 365828
1.94167e+06, 466615, 366123
1.94634e+06, 466377, 366418
1.951e+06, 466139, 366714
1.95566e+06, 465900, 367026
1.96032e+06, 465661, 367338
1.96498e+06, 465421, 367648
1.96963e+06, 465180, 367959
1.97428e+06, 464939, 368269
1.97893e+06, 464697, 368579
1.98357e+06, 464455, 368888
1.98822e+06, 464212, 369197
1.99286e+06, 463969, 369505
1.9975e+06, 463725, 369813
2.00213e+06, 463481, 370121
2.00676e+06, 463236, 370428
2.0114e+06, 462990, 370735
2.01602e+06, 462744, 371041
2.02065e+06, 462497, 371347
2.02527e+06, 462250, 371653
2.0299e+06, 462002, 371958
2.03451e+06, 461753, 372263
2.03913e+06, 461504, 372567
2.04374e+06, 461255, 372871
2.04836e+06, 461004, 373174
2.05296e+06, 460754, 373477
2.05757e+06, 460503, 373780
2.06217e+06, 460251, 374082
2.06678e+06, 459998, 374390
2.07137e+06, 459745, 374709
2.07597e+06, 459492, 375027
2.08056e+06, 459238, 375345
2.08516e+06, 458983, 375662
2.08974e+06, 458728, 375979
2.09433e+06, 458472, 376295
2.09891e+06, 458216, 376611
2.10349e+06, 457959, 376926
2.10807e+06, 457701, 377242
2.11265e+06, 457443, 377556
2.11722e+06, 457185, 377870
2.12179e+06, 456926, 378184
2.12636e+06, 456666, 378497
2.13093e+06, 456406, 378810
2.13549e+06, 456145, 379123
2.14005e+06, 455883, 379435
2.14461e+06, 455622, 379746
2.14916e+06, 455359, 380057
2.15371e+06, 455096, 380368
2.15826e+06, 454832, 380678
2.16281e+06, 454568, 380988
2.16735e+06, 454304, 381298
2.1719e+06, 454038, 381607
2.17644e+06, 453773, 381915
2.18097e+06, 453506, 382227
2.18551e+06, 453239, 382552
2.19004e+06, 452972, 382875
2.19456e+06, 452704, 383199
2.19909e+06, 452435, 383522
2.20361e+06, 452166, 383844
2.20813e+06, 451896, 384166
2.21265e+06, 451626, 384488
2.21717e+06, 451355, 384809
2.22168e+06, 451084, 385129
2.22619e+06, 450812, 385449
2.23069e+06, 450540, 385769
2.2352e+06, 450267, 386088
2.2397e+06, 449993, 386407
2.2442e+06, 449719, 386725
2.24869e+06, 449444, 387043
2.25319e+06, 449169, 387361
2.25768e+06, 448893, 387678
2.26217e+06, 448617, 387994
2.26665e+06, 448340, 388310
2.27113e+06, 448063, 388626
2.27561e+06, 447785, 388941
2.28009e+06, 447506, 389256
2.28456e+06, 447227, 389570
2.28903e+06, 446948, 389884
2.2935e+06, 446668, 390197
2.29797e+06, 446387, 390522
2.30243e+06, 446106, 390850
2.30689e+06, 445824, 391178
2.31134e+06, 445542, 391506
2.3158e+06, 445259, 391833
2.32025e+06, 444975, 392159
2.3247e+06, 444691, 392485
2.32914e+06, 444407, 392811
2.33359e+06, 444122, 393136
2.33803e+06, 443836, 393461
2.34246e+06, 443550, 393785
2.3469e+06, 443263, 394108
2.35133e+06, 442976, 394432
2.35576e+06, 442689, 394754
2.36018e+06, 442400, 395077
2.3646e+06, 442111, 395398
2.36902e+06, 441822, 395720
2.37344e+06, 441532, 396040
2.37785e+06, 441242, 396361
2.38227e+06, 440951, 396681
2.38667e+06, 440659, 397000
2.39108e+06, 440367, 397319
2.39548e+06, 440074, 397638
2.39988e+06, 439781, 397956
2.40428e+06, 439488, 398273
2.40867e+06, 439193, 398590
2.41306e+06, 438899, 398920
2.41745e+06, 438603, 399251
2.42183e+06, 438308, 399582
2.42621e+06, 438011, 399913
2.43059e+06, 437714, 400243
2.43497e+06, 437417, 400573
2.43934e+06, 437119, 400902
2.44371e+06, 436820, 401230
2.44808e+06, 436521, 401558
2.45244e+06, 436222, 401886
2.4568e+06, 435922, 402213
2.46116e+06, 435621, 402540
2.46551e+06, 435320, 402866
2.46987e+06, 435018, 403191
2.47421e+06, 434716, 403517
2.47856e+06, 434413, 403841
2.4829e+06, 434110, 404165
2.48724e+06, 433806, 404489
2.49158e+06, 433502, 404812
2.49591e+06, 433197, 405135
2.50024e+06, 432891, 405457
2.50457e+06, 432585, 405779
2.50889e+06, 432279, 406100
2.51322e+06, 431972, 406421
2.51753e+06, 431664, 406741
2.52185e+06, 431356, 407061
2.52616e+06, 431048, 407388
2.53047e+06, 430739, 407721
2.53478e+06, 430429, 408055
2.53908e+06, 430119, 408387
2.54338e+06, 429808, 408719
2.54768e+06, 429497, 409051
2.55197e+06, 429185, 409382
2.55626e+06, 428873, 409713
2.56055e+06, 428560, 410043
2.56483e+06, 428247, 410372
2.56911e+06, 427933, 410702
2.57339e+06, 427619, 411030
2.57766e+06, 427304, 411358
2.58193e+06, 426988, 411686
2.5862e+06, 426672, 412013
2.59047e+06, 426356, 412340
2.59473e+06, 426039, 412666
2.59899e+06, 425721, 412991
2.60324e+06, 425403, 413316
2.6075e+06, 425085, 413641
2.61175e+06, 424766, 413965
2.61599e+06, 424446, 414289
2.62024e+06, 424126, 414612
2.62447e+06, 423806, 414934
2.62871e+06, 423484, 415256
2.63294e+06, 423163, 415578
2.63717e+06, 422841, 415899
2.6414e+06, 422518, 416229
2.64563e+06, 422195, 416563
2.64985e+06, 421871, 416897
2.65406e+06, 421547, 417230
2.65828e+06, 421222, 417563
2.66249e+06, 420897, 417895
2.66669e+06, 420571, 418227
2.6709e+06, 420245, 418558
2.6751e+06, 419918, 418889
2.6793e+06, 419591, 419219
2.68349e+06, 419263, 419549
2.68768e+06, 418934, 419878
2.69187e+06, 418606, 420206
2.69605e+06, 418276, 420535
2.70024e+06, 417946, 420862
2.70441e+06, 417616, 421189
2.70859e+06, 417285, 421516
2.71276e+06, 416954, 421842
2.71693e+06, 416622, 422167
2.72109e+06, 416289, 422493
2.72525e+06, 415956, 422817
2.72941e+06, 415623, 423141
2.73356e+06, 415289, 423465
2.73772e+06, 414954, 423788
2.74186e+06, 414619, 424110
2.74601e+06, 414284, 424432
2.75015e+06, 413948, 424754
2.75429e+06, 413612, 425077
2.75842e+06, 413275, 425411
2.76255e+06, 412937, 425745
2.76668e+06, 412599, 426078
2.7708e+06, 412261, 426410
2.77493e+06, 411922, 426742
2.77904e+06, 411582, 427074
2.78316e+06, 411242, 427405
2.78727e+06, 410901, 427735
2.79138e+06, 410560, 428065
2.79548e+06, 410219, 428394
2.79958e+06, 409877, 428723
2.80368e+06, 409534, 429052
2.80777e+06, 409191, 429379
2.81186e+06, 408848, 429707
2.81595e+06, 408504, 430033
2.82003e+06, 408159, 430360
2.82411e+06, 407814, 430685
2.82819e+06, 407469, 431010
2.83226e+06, 407123, 431335
2.83633e+06, 406776, 431659
2.8404e+06, 406429, 431983
2.84446e+06, 406082, 432306
2.84852e+06, 405734, 432628
2.85257e+06, 405385, 432950
2.85662e+06, 405036, 433272
2.86067e+06, 404687, 433593
2.86472e+06, 404337, 433913
2.86876e+06, 403986, 434235
2.8728e+06, 403635, 434567
2.87683e+06, 403284, 434899
2.88086e+06, 402932, 435231
2.88489e+06, 402579, 435562
2.88892e+06, 402226, 435892
2.89294e+06, 401873, 436222
2.89695e+06, 401519, 436551
2.90097e+06, 401164, 436880
2.90498e+06, 400809, 437208
2.90898e+06, 400454, 437536
2.91299e+06, 400098, 437863
2.91698e+06, 399742, 438189
2.92098e+06, 399385, 438515
2.92497e+06, 399028, 438841
2.92896e+06, 398670, 439166
2.93295e+06, 398311, 439490
2.93693e+06, 397952, 439814
2.9409e+06, 397593, 440138
2.94488e+06, 397233, 440460
2.94885e+06, 396873, 440783
2.95282e+06, 396512, 441105
2.95678e+06, 396151, 441426
2.96074e+06, 395789, 441747
2.9647e+06, 395427, 442067
2.96865e+06, 395064, 442386
2.9726e+06, 394701, 442706
2.97654e+06, 394338, 443024
2.98048e+06, 393973, 443342
2.98442e+06, 393609, 443664
2.98836e+06, 393244, 443994
2.99229e+06, 392878, 444323
2.99621e+06, 392512, 444651
3.00014e+06, 392145, 444979
3.00406e+06, 391778, 445307
3.00797e+06, 391411, 445633
3.01188e+06, 391043, 445959
3.01579e+06, 390674, 446285
3.0197e+06, 390305, 446610
3.0236e+06, 389936, 446935
3.0275e+06, 389566, 447259
3.03139e+06, 389196, 447582
3.03528e+06, 388825, 447905
3.03917e+06, 388453, 448228
3.04305e+06, 388082, 448550
3.04693e+06, 387709, 448871
3.0508e+06, 387337, 449192
3.05468e+06, 386963, 449512
3.05854e+06, 386590, 449832
3.06241e+06, 386215, 450151
3.06627e+06, 385841, 450470
3.07012e+06, 385466, 450788
3.07398e+06, 385090, 451105
3.07783e+06, 384714, 451422
3.08167e+06, 384338, 451739
3.08551e+06, 383961, 452055
3.08935e+06, 383583, 452370
3.09318e+06, 383205, 452685
3.09701e+06, 382827, 453000
3.10084e+06, 382448, 453323
3.10466e+06, 382068, 453648
3.10848e+06, 381689, 453973
3.1123e+06, 381308, 454297
3.11611e+06, 380928, 454621
3.11992e+06, 380546, 454943
3.12372e+06, 380165, 455266
3.12752e+06, 379783, 455588
3.13131e+06, 379400, 455909
3.13511e+06, 379017, 456230
3.13889e+06, 378633, 456550
3.14268e+06, 378249, 456870
3.14646e+06, 377865, 457189
3.15024e+06, 377480, 457507
3.15401e+06, 377095, 457825
3.15778e+06, 376709, 458143
3.16154e+06, 376322, 458460
3.1653e+06, 375936, 458776
3.16906e+06, 375549, 459092
3.17282e+06, 375161, 459407
3.17657e+06, 374773, 459722
3.18031e+06, 374384, 460036
3.18405e+06, 373995, 460350
3.18779e+06, 373606, 460663
3.19153e+06, 373216, 460975
3.19526e+06, 372825, 461287
3.19898e+06, 372434, 461599
3.2027e+06, 372043, 461910
3.20642e+06, 371651, 462220
3.21014e+06, 371259, 462530
3.21385e+06, 370866, 462844
3.21755e+06, 370473, 463164
3.22126e+06, 370079, 463483
3.22496e+06, 369685, 463802
3.22865e+06, 369291, 464120
3.23234e+06, 368896, 464438
3.23603e+06, 368500, 464756
3.23971e+06, 368105, 465072
3.24339e+06, 367708, 465388
3.24707e+06, 367311, 465704
3.25074e+06, 366914, 466019
3.2544e+06, 366517, 466333
3.25807e+06, 366118, 466647
3.26173e+06, 365720, 466961
3.26538e+06, 365321, 467274
3.26903e+06, 364921, 467586
3.27268e+06, 364522, 467898
3.27632e+06, 364121, 468209
3.27996e+06, 363720, 468519
3.2836e+06, 363319, 468830
3.28723e+06, 362918, 469139
3.29086e+06, 362515, 469448
3.29448e+06, 362113, 469756
3.2981e+06, 361710, 470064
3.30171e+06, 361306, 470372
3.30532e+06, 360902, 470679
3.30893e+06, 360498, 470985
3.31253e+06, 360093, 471291
3.31613e+06, 359688, 471596
3.31973e+06, 359283, 471900
3.32332e+06, 358876, 472204
3.32691e+06, 358470, 472508
3.33049e+06, 358063, 472821
3.33407e+06, 357656, 473134
3.33764e+06, 357248, 473446
3.34121e+06, 356839, 473758
3.34478e+06, 356431, 474070
3.34834e+06, 356022, 474381
3.3519e+06, 355612, 474691
3.35545e+06, 355202, 475001
3.359e+06, 354791, 475310
3.36255e+06, 354381, 475618
3.36609e+06, 353969, 475926
3.36963e+06, 353557, 476234
3.37316e+06, 353145, 476541
3.37669e+06, 352733, 476847
3.38022e+06, 352320, 477153
3.38374e+06, 351906, 477458
3.38725e+06, 351492, 477763
3.39077e+06, 351078, 478067
3.39428e+06, 350663, 478371
3.39778e+06, 350248, 478674
3.40128e+06, 349832, 478976
3.40478e+06, 349416, 479278
3.40827e+06, 349000, 479580
3.41176e+06, 348583, 479880
3.41524e+06, 348165, 480181
3.41872e+06, 347748, 480481
3.4222e+06, 347329, 480780
