s(m), v_par(m/s), v_perp(m/s)
0, 485425, 1.81163e+06
4854.21, 485414, 1.8117e+06
9708.2, 485380, 1.81177e+06
14561.7, 485325, 1.81184e+06
19414.6, 485248, 1.81191e+06
24266.6, 485148, 1.81198e+06
29117.5, 485026, 1.81205e+06
33967.1, 484882, 1.81212e+06
38815.1, 484716, 1.81219e+06
43661.3, 484528, 1.81226e+06
48505.6, 484318, 1.81233e+06
53347.6, 484085, 1.8124e+06
58187.2, 483831, 1.81247e+06
63024.2, 483554, 1.81254e+06
67858.2, 483256, 1.81261e+06
72689.2, 482935, 1.81268e+06
77516.8, 482592, 1.81275e+06
82341, 482228, 1.81282e+06
87161.3, 481841, 1.81289e+06
91977.7, 481432, 1.81296e+06
96789.9, 481002, 1.81303e+06
101598, 480549, 1.8131e+06
106401, 480075, 1.81317e+06
111199, 479578, 1.81324e+06
115992, 479060, 1.81334e+06
120780, 478520, 1.81355e+06
125563, 477958, 1.81376e+06
130339, 477374, 1.81396e+06
135110, 476768, 1.81417e+06
139875, 476141, 1.81438e+06
144633, 475492, 1.81458e+06
149384, 474821, 1.81479e+06
154129, 474128, 1.81499e+06
158867, 473414, 1.8152e+06
163597, 472679, 1.8154e+06
168320, 471921, 1.81561e+06
173036, 471143, 1.81581e+06
177743, 470342, 1.81601e+06
182442, 469521, 1.81622e+06
187133, 468678, 1.81642e+06
191816, 467813, 1.81662e+06
196490, 466927, 1.81682e+06
201154, 466020, 1.81703e+06
205810, 465091, 1.81723e+06
210456, 464142, 1.81743e+06
215093, 463171, 1.81763e+06
219720, 462179, 1.81783e+06
224336, 461166, 1.81803e+06
228943, 460132, 1.81823e+06
233539, 459077, 1.81854e+06
238124, 458000, 1.81887e+06
242699, 456904, 1.8192e+06
247262, 455786, 1.81953e+06
251814, 454647, 1.81986e+06
256355, 453488, 1.82018e+06
260884, 452308, 1.82051e+06
265401, 451107, 1.82083e+06
269906, 449886, 1.82116e+06
274399, 448644, 1.82148e+06
278879, 447382, 1.8218e+06
283346, 446099, 1.82212e+06
287801, 444796, 1.82244e+06
292242, 443473, 1.82276e+06
296670, 442129, 1.82308e+06
301085, 440765, 1.8234e+06
305486, 439381, 1.82371e+06
309872, 437978, 1.82403e+06
314245, 436554, 1.82434e+06
318603, 435110, 1.82465e+06
322947, 433646, 1.82497e+06
327276, 432163, 1.82528e+06
331590, 430660, 1.82558e+06
335889, 429137, 1.82589e+06
340173, 427594, 1.8262e+06
344441, 426033, 1.82651e+06
348694, 424451, 1.82694e+06
352930, 422850, 1.82736e+06
357151, 421230, 1.82779e+06
361355, 419591, 1.82821e+06
365542, 417933, 1.82863e+06
369713, 416255, 1.82905e+06
373867, 414559, 1.82946e+06
378004, 412844, 1.82988e+06
382124, 411110, 1.83029e+06
386226, 409357, 1.8307e+06
390311, 407585, 1.83111e+06
394378, 405795, 1.83152e+06
398427, 403986, 1.83192e+06
402458, 402159, 1.83232e+06
406470, 400313, 1.83272e+06
410464, 398450, 1.83312e+06
414439, 396568, 1.83352e+06
418395, 394668, 1.83392e+06
422332, 392749, 1.83431e+06
426250, 390813, 1.8347e+06
430149, 388860, 1.83509e+06
434027, 386888, 1.83548e+06
437886, 384899, 1.83586e+06
441725, 382892, 1.83625e+06
445544, 380868, 1.83663e+06
449343, 378826, 1.83701e+06
453121, 376767, 1.83738e+06
456878, 374691, 1.83776e+06
460614, 372598, 1.83818e+06
464330, 370488, 1.83865e+06
468024, 368361, 1.83913e+06
471697, 366217, 1.8396e+06
475348, 364056, 1.84007e+06
478978, 361879, 1.84053e+06
482586, 359685, 1.84099e+06
486172, 357475, 1.84145e+06
489735, 355249, 1.84191e+06
493277, 353006, 1.84236e+06
496795, 350747, 1.84281e+06
500291, 348472, 1.84326e+06
503765, 346182, 1.8437e+06
507215, 343875, 1.84414e+06
510642, 341553, 1.84458e+06
514046, 339215, 1.84501e+06
517426, 336862, 1.84544e+06
520783, 334493, 1.84587e+06
524116, 332110, 1.8463e+06
527425, 329711, 1.84672e+06
530710, 327296, 1.84714e+06
533971, 324867, 1.84756e+06
537208, 322424, 1.84797e+06
540420, 319965, 1.84838e+06
543607, 317492, 1.84878e+06
546769, 315004, 1.84919e+06
549907, 312502, 1.84959e+06
553019, 309986, 1.84998e+06
556107, 307456, 1.85038e+06
559169, 304911, 1.85077e+06
562205, 302353, 1.85115e+06
565216, 299781, 1.85153e+06
568200, 297195, 1.85191e+06
571159, 294596, 1.85229e+06
574092, 291983, 1.85268e+06
576999, 289357, 1.85313e+06
579879, 286717, 1.85358e+06
582733, 284065, 1.85402e+06
585561, 281400, 1.85446e+06
588361, 278721, 1.85489e+06
591135, 276030, 1.85532e+06
593882, 273327, 1.85575e+06
596602, 270611, 1.85617e+06
599294, 267882, 1.85659e+06
601959, 265142, 1.857e+06
604597, 262389, 1.85741e+06
607207, 259625, 1.85782e+06
609789, 256848, 1.85822e+06
612344, 254060, 1.85861e+06
614870, 251260, 1.859e+06
617369, 248449, 1.85939e+06
619839, 245626, 1.85977e+06
622281, 242792, 1.86015e+06
624695, 239947, 1.86052e+06
627080, 237092, 1.86089e+06
629437, 234225, 1.86126e+06
631765, 231348, 1.86162e+06
634064, 228460, 1.86197e+06
636334, 225561, 1.86232e+06
638575, 222653, 1.86267e+06
640787, 219734, 1.86301e+06
642970, 216805, 1.86335e+06
645123, 213866, 1.86368e+06
647247, 210918, 1.86401e+06
649341, 207960, 1.86433e+06
651406, 204992, 1.86465e+06
653441, 202015, 1.86497e+06
655446, 199029, 1.86528e+06
657422, 196034, 1.86558e+06
659367, 193030, 1.86588e+06
661282, 190017, 1.86618e+06
663167, 186995, 1.86647e+06
665022, 183965, 1.86675e+06
666847, 180927, 1.86704e+06
668641, 177880, 1.86731e+06
670404, 174825, 1.86758e+06
672137, 171762, 1.86785e+06
673839, 168691, 1.86811e+06
675511, 165613, 1.86837e+06
677152, 162527, 1.86862e+06
678761, 159433, 1.86887e+06
680340, 156333, 1.86912e+06
681888, 153225, 1.86935e+06
683405, 150110, 1.86959e+06
684890, 146988, 1.86982e+06
686345, 143860, 1.87004e+06
687767, 140725, 1.87026e+06
689159, 137584, 1.87049e+06
690519, 134436, 1.87074e+06
691848, 131282, 1.87098e+06
693145, 128122, 1.87122e+06
694410, 124957, 1.87145e+06
695644, 121785, 1.87167e+06
696846, 118609, 1.87189e+06
698016, 115426, 1.87211e+06
699154, 112239, 1.87231e+06
700261, 109046, 1.87251e+06
701335, 105848, 1.87271e+06
702378, 102646, 1.8729e+06
703388, 99438.7, 1.87308e+06
704366, 96227.1, 1.87326e+06
705313, 93011, 1.87343e+06
706227, 89790.6, 1.8736e+06
707108, 86566.2, 1.87376e+06
707958, 83337.8, 1.87391e+06
708775, 80105.6, 1.87406e+06
709560, 76869.8, 1.8742e+06
710313, 73630.5, 1.87434e+06
711033, 70387.8, 1.87447e+06
711720, 67141.8, 1.87459e+06
712376, 63892.9, 1.87471e+06
712998, 60641, 1.87483e+06
713588, 57386.3, 1.87493e+06
714146, 54129, 1.87503e+06
714671, 50869.3, 1.87513e+06
715163, 47607.2, 1.87522e+06
715623, 44343, 1.8753e+06
716050, 41076.7, 1.87538e+06
716445, 37808.6, 1.87545e+06
716806, 34538.7, 1.87552e+06
717135, 31267.2, 1.87558e+06
717432, 27994.4, 1.87563e+06
717695, 24720.2, 1.87568e+06
717926, 21445, 1.87572e+06
718124, 18168.7, 1.87576e+06
718289, 14891.6, 1.87579e+06
718422, 11613.9, 1.87581e+06
718522, 8335.57, 1.87583e+06
718589, 5056.9, 1.87584e+06
718623, 1778, 1.87585e+06
718624, -1500.98, 1.87585e+06
718593, -4779.89, 1.87584e+06
718529, -8058.59, 1.87583e+06
718432, -11336.9, 1.87581e+06
718302, -14614.7, 1.87579e+06
718139, -17891.9, 1.87576e+06
717944, -21168.2, 1.87572e+06
717716, -24443.6, 1.87568e+06
717455, -27717.8, 1.87564e+06
717162, -30990.8, 1.87558e+06
716835, -34262.4, 1.87552e+06
716476, -37532.4, 1.87546e+06
716085, -40800.7, 1.87539e+06
715660, -44067.1, 1.87531e+06
715203, -47331.5, 1.87523e+06
714714, -50593.8, 1.87514e+06
714192, -53853.7, 1.87504e+06
713637, -57111.2, 1.87494e+06
713049, -60366.1, 1.87484e+06
712429, -63618.2, 1.87472e+06
711777, -66867.5, 1.8746e+06
711092, -70113.6, 1.87448e+06
710375, -73356.6, 1.87435e+06
709625, -76596.3, 1.87421e+06
708843, -79832.4, 1.87407e+06
708028, -83064.9, 1.87392e+06
707181, -86293.6, 1.87377e+06
706302, -89518.4, 1.87361e+06
705391, -92739.1, 1.87345e+06
704448, -95955.5, 1.87327e+06
703472, -99167.6, 1.8731e+06
702464, -102375, 1.87291e+06
701425, -105578, 1.87272e+06
700353, -108776, 1.87253e+06
699249, -111969, 1.87233e+06
698113, -115157, 1.87212e+06
696946, -118340, 1.87191e+06
695747, -121517, 1.87169e+06
694516, -124689, 1.87147e+06
693253, -127855, 1.87124e+06
691959, -131015, 1.871e+06
690633, -134170, 1.87076e+06
689275, -137318, 1.87052e+06
687886, -140460, 1.87028e+06
686466, -143595, 1.87006e+06
685014, -146724, 1.86984e+06
683532, -149846, 1.86961e+06
682017, -152962, 1.86937e+06
680472, -156070, 1.86914e+06
678896, -159172, 1.86889e+06
677289, -162266, 1.86865e+06
675651, -165352, 1.86839e+06
673982, -168431, 1.86814e+06
672282, -171503, 1.86787e+06
670552, -174566, 1.86761e+06
668791, -177622, 1.86734e+06
666999, -180669, 1.86706e+06
665178, -183709, 1.86678e+06
663325, -186740, 1.86649e+06
661443, -189762, 1.8662e+06
659530, -192776, 1.86591e+06
657587, -195781, 1.86561e+06
655614, -198777, 1.8653e+06
653612, -201764, 1.86499e+06
651579, -204741, 1.86468e+06
649517, -207710, 1.86436e+06
647425, -210668, 1.86404e+06
645304, -213618, 1.86371e+06
643153, -216557, 1.86338e+06
640973, -219487, 1.86304e+06
638763, -222407, 1.8627e+06
636524, -225316, 1.86235e+06
634257, -228215, 1.862e+06
631960, -231104, 1.86165e+06
629635, -233982, 1.86129e+06
627281, -236850, 1.86092e+06
624898, -239707, 1.86056e+06
622486, -242552, 1.86018e+06
620047, -245387, 1.8598e+06
617579, -248211, 1.85942e+06
615083, -251023, 1.85904e+06
612558, -253824, 1.85864e+06
610006, -256613, 1.85825e+06
607426, -259390, 1.85785e+06
604818, -262156, 1.85745e+06
602183, -264910, 1.85704e+06
599520, -267651, 1.85662e+06
596830, -270381, 1.85621e+06
594113, -273098, 1.85578e+06
591368, -275802, 1.85536e+06
588597, -278494, 1.85493e+06
585798, -281174, 1.85449e+06
582973, -283840, 1.85406e+06
580122, -286494, 1.85361e+06
577243, -289134, 1.85317e+06
574339, -291761, 1.85271e+06
571408, -294375, 1.85232e+06
568451, -296976, 1.85195e+06
565469, -299563, 1.85157e+06
562460, -302136, 1.85118e+06
559426, -304696, 1.8508e+06
556366, -307241, 1.85041e+06
553281, -309773, 1.85002e+06
550171, -312290, 1.84962e+06
547035, -314794, 1.84922e+06
543875, -317282, 1.84882e+06
540690, -319757, 1.84841e+06
537480, -322217, 1.848e+06
534246, -324662, 1.84759e+06
530987, -327092, 1.84717e+06
527704, -329507, 1.84676e+06
524397, -331907, 1.84633e+06
521066, -334293, 1.84591e+06
517711, -336663, 1.84548e+06
514333, -339017, 1.84505e+06
510931, -341356, 1.84462e+06
507505, -343680, 1.84418e+06
504057, -345987, 1.84374e+06
500586, -348279, 1.84329e+06
497092, -350556, 1.84285e+06
493575, -352816, 1.8424e+06
490035, -355060, 1.84194e+06
486474, -357288, 1.84149e+06
482890, -359499, 1.84103e+06
479284, -361694, 1.84057e+06
475656, -363873, 1.8401e+06
472006, -366035, 1.83964e+06
468335, -368180, 1.83917e+06
464643, -370309, 1.83869e+06
460929, -372420, 1.83822e+06
457194, -374515, 1.83779e+06
453439, -376593, 1.83741e+06
449663, -378653, 1.83704e+06
445866, -380696, 1.83666e+06
442049, -382722, 1.83628e+06
438211, -384730, 1.8359e+06
434354, -386721, 1.83551e+06
430477, -388694, 1.83512e+06
426580, -390649, 1.83473e+06
422664, -392587, 1.83434e+06
418729, -394506, 1.83395e+06
414774, -396408, 1.83355e+06
410801, -398291, 1.83316e+06
406808, -400157, 1.83276e+06
402797, -402004, 1.83236e+06
398768, -403832, 1.83195e+06
394721, -405643, 1.83155e+06
390655, -407434, 1.83114e+06
386572, -409208, 1.83073e+06
382471, -410962, 1.83032e+06
378353, -412698, 1.82991e+06
374218, -414415, 1.8295e+06
370065, -416113, 1.82908e+06
365895, -417792, 1.82866e+06
361709, -419452, 1.82824e+06
357506, -421093, 1.82782e+06
353287, -422714, 1.8274e+06
349052, -424317, 1.82698e+06
344801, -425900, 1.82655e+06
340534, -427463, 1.82623e+06
336252, -429007, 1.82592e+06
331954, -430532, 1.82561e+06
327641, -432037, 1.8253e+06
323313, -433522, 1.82499e+06
318971, -434987, 1.82468e+06
314614, -436432, 1.82437e+06
310242, -437858, 1.82405e+06
305857, -439264, 1.82374e+06
301457, -440649, 1.82342e+06
297044, -442015, 1.82311e+06
292617, -443360, 1.82279e+06
288177, -444685, 1.82247e+06
283723, -445990, 1.82215e+06
279257, -447274, 1.82183e+06
274778, -448538, 1.82151e+06
270286, -449782, 1.82118e+06
265782, -451005, 1.82086e+06
261266, -452207, 1.82054e+06
256738, -453389, 1.82021e+06
252198, -454550, 1.81988e+06
247647, -455690, 1.81956e+06
243085, -456810, 1.81923e+06
238511, -457909, 1.8189e+06
233927, -458986, 1.81857e+06
229331, -460043, 1.81824e+06
224726, -461079, 1.81804e+06
220110, -462094, 1.81784e+06
215484, -463088, 1.81764e+06
210848, -464061, 1.81744e+06
206203, -465012, 1.81724e+06
201548, -465942, 1.81704e+06
196884, -466851, 1.81684e+06
192211, -467739, 1.81664e+06
187529, -468605, 1.81644e+06
182839, -469450, 1.81623e+06
178140, -470274, 1.81603e+06
173434, -471076, 1.81583e+06
168719, -471857, 1.81562e+06
163997, -472616, 1.81542e+06
159267, -473353, 1.81521e+06
154530, -474069, 1.81501e+06
149785, -474763, 1.8148e+06
145034, -475436, 1.8146e+06
140277, -476087, 1.81439e+06
135513, -476716, 1.81419e+06
130743, -477323, 1.81398e+06
125966, -477909, 1.81377e+06
121184, -478473, 1.81357e+06
116397, -479015, 1.81336e+06
111604, -479535, 1.81324e+06
106806, -480033, 1.81317e+06
102004, -480510, 1.8131e+06
97196.3, -480964, 1.81303e+06
92384.4, -481397, 1.81296e+06
87568.4, -481807, 1.81289e+06
82748.4, -482196, 1.81283e+06
77924.6, -482562, 1.81276e+06
73097.2, -482907, 1.81269e+06
68266.5, -483230, 1.81262e+06
63432.7, -483530, 1.81255e+06
58596, -483808, 1.81248e+06
53756.6, -484065, 1.81241e+06
48914.7, -484299, 1.81234e+06
44070.7, -484511, 1.81227e+06
39224.6, -484701, 1.8122e+06
34376.7, -484869, 1.81213e+06
29527.3, -485015, 1.81206e+06
24676.5, -485139, 1.81199e+06
19824.6, -485240, 1.81192e+06
14971.8, -485319, 1.81185e+06
10118.3, -485377, 1.81178e+06
5264.31, -485412, 1.81171e+06
410.108, -485425, 1.81164e+06
-4444.11, -485416, 1.81169e+06
-9298.13, -485384, 1.81176e+06
-14151.7, -485331, 1.81183e+06
-19004.7, -485255, 1.8119e+06
-23856.7, -485157, 1.81197e+06
-28707.7, -485037, 1.81204e+06
-33557.4, -484895, 1.81211e+06
-38405.6, -484731, 1.81218e+06
-43252, -484545, 1.81225e+06
-48096.4, -484336, 1.81232e+06
-52938.6, -484106, 1.81239e+06
-57778.4, -483853, 1.81246e+06
-62615.6, -483579, 1.81253e+06
-67449.9, -483282, 1.8126e+06
-72281.2, -482963, 1.81267e+06
-77109.1, -482622, 1.81274e+06
-81933.5, -482259, 1.81281e+06
-86754.2, -481875, 1.81288e+06
-91571, -481468, 1.81295e+06
-96383.5, -481039, 1.81302e+06
-101192, -480588, 1.81309e+06
-105995, -480115, 1.81316e+06
-110794, -479621, 1.81323e+06
-115588, -479104, 1.81332e+06
-120376, -478566, 1.81353e+06
-125159, -478006, 1.81374e+06
-129936, -477424, 1.81395e+06
-134707, -476820, 1.81415e+06
-139472, -476195, 1.81436e+06
-144231, -475547, 1.81456e+06
-148983, -474878, 1.81477e+06
-153729, -474188, 1.81497e+06
-158467, -473476, 1.81518e+06
-163198, -472742, 1.81538e+06
-167922, -471986, 1.81559e+06
-172638, -471209, 1.81579e+06
-177346, -470411, 1.816e+06
-182046, -469591, 1.8162e+06
-186737, -468750, 1.8164e+06
-191421, -467887, 1.8166e+06
-196095, -467003, 1.81681e+06
-200761, -466097, 1.81701e+06
-205417, -465171, 1.81721e+06
-210064, -464223, 1.81741e+06
-214701, -463254, 1.81761e+06
-219329, -462263, 1.81781e+06
-223947, -461252, 1.81801e+06
-228554, -460220, 1.81821e+06
-233151, -459166, 1.81851e+06
-237737, -458092, 1.81884e+06
-242313, -456997, 1.81917e+06
-246877, -455881, 1.8195e+06
-251430, -454744, 1.81983e+06
-255972, -453586, 1.82016e+06
-260502, -452408, 1.82048e+06
-265020, -451209, 1.82081e+06
-269526, -449990, 1.82113e+06
-274020, -448750, 1.82145e+06
-278501, -447489, 1.82177e+06
-282969, -446208, 1.8221e+06
-287425, -444907, 1.82242e+06
-291868, -443585, 1.82273e+06
-296297, -442243, 1.82305e+06
-300712, -440881, 1.82337e+06
-305114, -439499, 1.82369e+06
-309502, -438097, 1.824e+06
-313876, -436675, 1.82431e+06
-318236, -435233, 1.82463e+06
-322581, -433771, 1.82494e+06
-326911, -432289, 1.82525e+06
-331226, -430787, 1.82556e+06
-335527, -429266, 1.82587e+06
-339812, -427726, 1.82617e+06
-344081, -426165, 1.82648e+06
-348335, -424586, 1.8269e+06
-352573, -422986, 1.82733e+06
-356795, -421368, 1.82775e+06
-361000, -419731, 1.82817e+06
-365189, -418074, 1.82859e+06
-369362, -416398, 1.82901e+06
-373517, -414703, 1.82943e+06
-377656, -412989, 1.82984e+06
-381777, -411257, 1.83025e+06
-385881, -409505, 1.83067e+06
-389967, -407735, 1.83107e+06
-394035, -405947, 1.83148e+06
-398086, -404140, 1.83189e+06
-402118, -402314, 1.83229e+06
-406132, -400470, 1.83269e+06
-410127, -398608, 1.83309e+06
-414104, -396727, 1.83349e+06
-418062, -394829, 1.83388e+06
-422000, -392912, 1.83428e+06
-425920, -390978, 1.83467e+06
-429820, -389025, 1.83506e+06
-433700, -387055, 1.83545e+06
-437561, -385068, 1.83583e+06
-441402, -383062, 1.83621e+06
-445222, -381040, 1.83659e+06
-449022, -378999, 1.83697e+06
-452802, -376942, 1.83735e+06
-456561, -374867, 1.83773e+06
-460299, -372776, 1.83814e+06
-464017, -370667, 1.83861e+06
-467713, -368541, 1.83909e+06
-471387, -366399, 1.83956e+06
-475041, -364239, 1.84003e+06
-478672, -362064, 1.84049e+06
-482282, -359871, 1.84095e+06
-485870, -357662, 1.84141e+06
-489435, -355437, 1.84187e+06
-492978, -353196, 1.84232e+06
-496499, -350939, 1.84277e+06
-499997, -348665, 1.84322e+06
-503472, -346376, 1.84366e+06
-506924, -344071, 1.8441e+06
-510354, -341750, 1.84454e+06
-513759, -339413, 1.84498e+06
-517142, -337061, 1.84541e+06
-520501, -334694, 1.84584e+06
-523836, -332312, 1.84626e+06
-527147, -329914, 1.84668e+06
-530434, -327501, 1.8471e+06
-533697, -325073, 1.84752e+06
-536935, -322631, 1.84793e+06
-540149, -320173, 1.84834e+06
-543339, -317701, 1.84875e+06
-546503, -315215, 1.84915e+06
-549643, -312714, 1.84955e+06
-552757, -310199, 1.84995e+06
-555847, -307670, 1.85034e+06
-558911, -305127, 1.85073e+06
-561949, -302570, 1.85112e+06
-564962, -299999, 1.8515e+06
-567949, -297414, 1.85188e+06
-570910, -294816, 1.85226e+06
-573846, -292204, 1.85264e+06
-576754, -289579, 1.85309e+06
-579637, -286941, 1.85354e+06
-582493, -284290, 1.85398e+06
-585323, -281625, 1.85442e+06
-588126, -278948, 1.85486e+06
-590902, -276258, 1.85529e+06
-593651, -273556, 1.85571e+06
-596373, -270841, 1.85614e+06
-599068, -268113, 1.85655e+06
-601735, -265374, 1.85697e+06
-604375, -262622, 1.85738e+06
-606987, -259859, 1.85778e+06
-609572, -257083, 1.85818e+06
-612129, -254296, 1.85858e+06
-614658, -251497, 1.85897e+06
-617159, -248687, 1.85936e+06
-619632, -245865, 1.85974e+06
-622076, -243032, 1.86012e+06
-624492, -240188, 1.86049e+06
-626880, -237333, 1.86086e+06
-629239, -234468, 1.86123e+06
-631569, -231591, 1.86159e+06
-633871, -228704, 1.86194e+06
-636143, -225807, 1.86229e+06
-638387, -222899, 1.86264e+06
-640601, -219981, 1.86298e+06
-642786, -217053, 1.86332e+06
-644942, -214115, 1.86365e+06
-647069, -211168, 1.86398e+06
-649166, -208210, 1.86431e+06
-651233, -205243, 1.86463e+06
-653270, -202267, 1.86494e+06
-655278, -199282, 1.86525e+06
-657256, -196287, 1.86556e+06
-659204, -193284, 1.86586e+06
-661122, -190272, 1.86615e+06
-663009, -187251, 1.86644e+06
-664867, -184221, 1.86673e+06
-666694, -181184, 1.86701e+06
-668490, -178137, 1.86729e+06
-670256, -175083, 1.86756e+06
-671992, -172021, 1.86783e+06
-673697, -168951, 1.86809e+06
-675371, -165873, 1.86835e+06
-677014, -162788, 1.8686e+06
-678627, -159695, 1.86885e+06
-680208, -156595, 1.86909e+06
-681759, -153488, 1.86933e+06
-683278, -150373, 1.86957e+06
-684766, -147252, 1.8698e+06
-686223, -144124, 1.87002e+06
-687648, -140990, 1.87024e+06
-689043, -137849, 1.87047e+06
-690405, -134702, 1.87072e+06
-691737, -131549, 1.87096e+06
-693036, -128390, 1.8712e+06
-694304, -125224, 1.87143e+06
-695541, -122054, 1.87166e+06
-696746, -118877, 1.87187e+06
-697918, -115695, 1.87209e+06
-699059, -112508, 1.8723e+06
-700169, -109316, 1.8725e+06
-701246, -106119, 1.87269e+06
-702291, -102917, 1.87288e+06
-703304, -99709.9, 1.87307e+06
-704285, -96498.6, 1.87324e+06
-705234, -93282.8, 1.87342e+06
-706151, -90062.9, 1.87358e+06
-707035, -86838.8, 1.87374e+06
-707887, -83610.7, 1.8739e+06
-708707, -80378.9, 1.87405e+06
-709495, -77143.3, 1.87419e+06
-710250, -73904.3, 1.87433e+06
-710973, -70661.8, 1.87446e+06
-711664, -67416.2, 1.87458e+06
-712321, -64167.5, 1.8747e+06
-712947, -60915.8, 1.87482e+06
-713540, -57661.4, 1.87492e+06
-714100, -54404.3, 1.87503e+06
-714628, -51144.8, 1.87512e+06
-715123, -47882.9, 1.87521e+06
-715585, -44618.8, 1.8753e+06
-716015, -41352.7, 1.87537e+06
-716413, -38084.7, 1.87545e+06
