s(m), v_par(m/s), v_perp(m/s)
0, 572888, 153505
5728.88, 572888, 153512
11457.8, 572887, 153519
17186.6, 572887, 153526
22915.5, 572886, 153533
28644.3, 572885, 153540
34373.2, 572884, 153547
40102, 572883, 153554
45830.9, 572882, 153561
51559.7, 572880, 153568
57288.5, 572878, 153575
63017.2, 572876, 153582
68746, 572874, 153589
74474.7, 572872, 153596
80203.4, 572869, 153603
85932.1, 572867, 153610
91660.8, 572864, 153617
97389.4, 572861, 153624
103118, 572857, 153631
108847, 572854, 153638
114575, 572850, 153645
120304, 572846, 153666
126032, 572842, 153687
131760, 572838, 153708
137489, 572834, 153729
143217, 572829, 153750
148945, 572824, 153771
154674, 572819, 153792
160402, 572814, 153813
166130, 572809, 153834
171858, 572803, 153855
177586, 572798, 153876
183314, 572792, 153897
189042, 572786, 153918
194770, 572779, 153939
200497, 572773, 153960
206225, 572766, 153981
211953, 572759, 154002
217680, 572752, 154022
223408, 572745, 154043
229135, 572738, 154064
234862, 572730, 154099
240590, 572722, 154133
246317, 572714, 154168
252044, 572706, 154203
257771, 572698, 154238
263498, 572689, 154273
269225, 572680, 154308
274952, 572672, 154343
280678, 572662, 154378
286405, 572653, 154413
292131, 572644, 154447
297858, 572634, 154482
303584, 572624, 154517
309310, 572614, 154552
315036, 572604, 154587
320762, 572593, 154621
326488, 572583, 154656
332214, 572572, 154691
337940, 572561, 154726
343665, 572550, 154761
349391, 572539, 154808
355116, 572527, 154857
360841, 572515, 154905
366566, 572503, 154954
372291, 572491, 155002
378016, 572479, 155051
383741, 572467, 155100
389465, 572454, 155148
395190, 572441, 155197
400914, 572428, 155245
406638, 572415, 155294
412362, 572401, 155342
418086, 572388, 155391
423810, 572374, 155439
429534, 572360, 155487
435257, 572346, 155536
440981, 572331, 155584
446704, 572317, 155633
452427, 572302, 155681
458150, 572287, 155729
463873, 572272, 155790
469595, 572257, 155852
475318, 572241, 155914
481040, 572226, 155976
486762, 572210, 156038
492484, 572194, 156100
498206, 572178, 156162
503928, 572161, 156224
509650, 572145, 156286
515371, 572128, 156348
521092, 572111, 156410
526813, 572094, 156471
532534, 572076, 156533
538255, 572059, 156595
543975, 572041, 156657
549695, 572023, 156719
555416, 572005, 156780
561136, 571987, 156842
566855, 571968, 156904
572575, 571950, 156965
578294, 571931, 157038
584014, 571912, 157113
589733, 571892, 157189
595451, 571873, 157264
601170, 571853, 157339
606888, 571834, 157414
612607, 571814, 157489
618325, 571794, 157564
624043, 571773, 157639
629760, 571753, 157714
635478, 571732, 157789
641195, 571711, 157864
646912, 571690, 157939
652629, 571669, 158014
658345, 571647, 158088
664062, 571625, 158163
669778, 571604, 158238
675494, 571582, 158312
681209, 571559, 158387
686925, 571537, 158462
692640, 571514, 158546
698355, 571492, 158634
704070, 571469, 158722
709785, 571445, 158810
715499, 571422, 158898
721213, 571399, 158986
726927, 571375, 159074
732640, 571351, 159161
738354, 571327, 159249
744067, 571303, 159337
749780, 571278, 159424
755493, 571253, 159512
761205, 571229, 159599
766917, 571204, 159687
772629, 571178, 159774
778341, 571153, 159861
784052, 571127, 159949
789763, 571102, 160036
795474, 571076, 160123
801185, 571049, 160210
806895, 571023, 160306
812605, 570997, 160406
818315, 570970, 160507
824025, 570943, 160607
829734, 570916, 160707
835443, 570889, 160807
841152, 570861, 160907
846860, 570833, 161007
852568, 570806, 161107
858276, 570778, 161207
863984, 570749, 161307
869691, 570721, 161406
875398, 570692, 161506
881105, 570664, 161606
886812, 570635, 161705
892518, 570606, 161805
898224, 570576, 161904
903929, 570547, 162003
909635, 570517, 162103
915340, 570487, 162202
921044, 570457, 162308
926749, 570427, 162421
932453, 570396, 162533
938157, 570366, 162645
943860, 570335, 162757
949563, 570304, 162869
955266, 570273, 162980
960969, 570241, 163092
966671, 570210, 163204
972373, 570178, 163315
978075, 570146, 163427
983776, 570114, 163538
989477, 570082, 163650
995178, 570049, 163761
1.00088e+06, 570016, 163872
1.00658e+06, 569983, 163983
1.01228e+06, 569950, 164094
1.01798e+06, 569917, 164205
1.02368e+06, 569884, 164316
1.02937e+06, 569850, 164427
1.03507e+06, 569816, 164543
1.04077e+06, 569782, 164667
1.04647e+06, 569748, 164790
1.05217e+06, 569714, 164914
1.05786e+06, 569679, 165037
1.06356e+06, 569644, 165160
1.06926e+06, 569609, 165283
1.07495e+06, 569574, 165406
1.08065e+06, 569539, 165529
1.08634e+06, 569503, 165652
1.09204e+06, 569468, 165775
1.09773e+06, 569432, 165897
1.10343e+06, 569396, 166020
1.10912e+06, 569360, 166142
1.11481e+06, 569323, 166265
1.12051e+06, 569287, 166387
1.1262e+06, 569250, 166509
1.13189e+06, 569213, 166631
1.13758e+06, 569176, 166753
1.14327e+06, 569138, 166875
1.14897e+06, 569101, 167000
1.15466e+06, 569063, 167135
1.16035e+06, 569025, 167269
1.16604e+06, 568987, 167403
1.17173e+06, 568949, 167537
1.17742e+06, 568910, 167671
1.18311e+06, 568872, 167805
1.18879e+06, 568833, 167939
1.19448e+06, 568794, 168072
1.20017e+06, 568754, 168206
1.20586e+06, 568715, 168339
1.21154e+06, 568675, 168472
1.21723e+06, 568636, 168606
1.22292e+06, 568596, 168739
1.2286e+06, 568555, 168872
1.23429e+06, 568515, 169004
1.23997e+06, 568475, 169137
1.24566e+06, 568434, 169270
1.25134e+06, 568393, 169402
1.25702e+06, 568352, 169534
1.26271e+06, 568311, 169668
1.26839e+06, 568269, 169813
1.27407e+06, 568228, 169957
1.27976e+06, 568186, 170102
1.28544e+06, 568144, 170246
1.29112e+06, 568101, 170390
1.2968e+06, 568059, 170534
1.30248e+06, 568017, 170678
1.30816e+06, 567974, 170822
1.31384e+06, 567931, 170966
1.31952e+06, 567888, 171109
1.3252e+06, 567844, 171253
1.33088e+06, 567801, 171396
1.33655e+06, 567757, 171539
1.34223e+06, 567713, 171682
1.34791e+06, 567669, 171825
1.35358e+06, 567625, 171968
1.35926e+06, 567581, 172110
1.36494e+06, 567536, 172253
1.37061e+06, 567491, 172395
1.37629e+06, 567446, 172537
1.38196e+06, 567401, 172691
1.38763e+06, 567356, 172845
1.39331e+06, 567310, 172999
1.39898e+06, 567264, 173153
1.40465e+06, 567218, 173307
1.41032e+06, 567172, 173461
1.416e+06, 567126, 173614
1.42167e+06, 567079, 173768
1.42734e+06, 567033, 173921
1.43301e+06, 566986, 174074
1.43868e+06, 566939, 174227
1.44435e+06, 566892, 174380
1.45001e+06, 566844, 174532
1.45568e+06, 566797, 174685
1.46135e+06, 566749, 174837
1.46702e+06, 566701, 174990
1.47268e+06, 566653, 175142
1.47835e+06, 566604, 175294
1.48402e+06, 566556, 175445
1.48968e+06, 566507, 175597
1.49535e+06, 566458, 175757
1.50101e+06, 566409, 175920
1.50667e+06, 566360, 176083
1.51234e+06, 566311, 176247
1.518e+06, 566261, 176409
1.52366e+06, 566211, 176572
1.52933e+06, 566161, 176735
1.53499e+06, 566111, 176897
1.54065e+06, 566060, 177060
1.54631e+06, 566010, 177222
1.55197e+06, 565959, 177384
1.55763e+06, 565908, 177546
1.56329e+06, 565857, 177707
1.56894e+06, 565806, 177869
1.5746e+06, 565754, 178030
1.58026e+06, 565703, 178191
1.58592e+06, 565651, 178352
1.59157e+06, 565599, 178513
1.59723e+06, 565547, 178674
1.60288e+06, 565494, 178834
1.60854e+06, 565441, 178999
1.61419e+06, 565389, 179172
1.61985e+06, 565336, 179343
1.6255e+06, 565283, 179515
1.63115e+06, 565229, 179687
1.6368e+06, 565176, 179858
1.64245e+06, 565122, 180029
1.64811e+06, 565068, 180200
1.65376e+06, 565014, 180371
1.65941e+06, 564960, 180542
1.66506e+06, 564905, 180712
1.6707e+06, 564851, 180882
1.67635e+06, 564796, 181052
1.682e+06, 564741, 181222
1.68765e+06, 564686, 181392
1.69329e+06, 564630, 181562
1.69894e+06, 564575, 181731
1.70459e+06, 564519, 181900
1.71023e+06, 564463, 182069
1.71587e+06, 564407, 182238
1.72152e+06, 564351, 182408
1.72716e+06, 564294, 182588
1.7328e+06, 564237, 182768
1.73845e+06, 564181, 182948
1.74409e+06, 564123, 183127
1.74973e+06, 564066, 183307
1.75537e+06, 564009, 183486
1.76101e+06, 563951, 183665
1.76665e+06, 563893, 183844
1.77229e+06, 563835, 184022
1.77792e+06, 563777, 184201
1.78356e+06, 563719, 184379
1.7892e+06, 563660, 184557
1.79484e+06, 563602, 184735
1.80047e+06, 563543, 184912
1.80611e+06, 563484, 185090
1.81174e+06, 563425, 185267
1.81737e+06, 563365, 185444
1.82301e+06, 563305, 185621
1.82864e+06, 563246, 185798
1.83427e+06, 563186, 185974
1.8399e+06, 563125, 186159
1.84554e+06, 563065, 186347
1.85117e+06, 563005, 186534
1.8568e+06, 562944, 186721
1.86242e+06, 562883, 186908
1.86805e+06, 562822, 187095
1.87368e+06, 562761, 187281
1.87931e+06, 562699, 187467
1.88494e+06, 562637, 187653
1.89056e+06, 562576, 187839
1.89619e+06, 562514, 188025
1.90181e+06, 562451, 188210
1.90744e+06, 562389, 188395
1.91306e+06, 562326, 188580
1.91868e+06, 562264, 188765
1.9243e+06, 562201, 188950
1.92993e+06, 562137, 189134
1.93555e+06, 562074, 189319
1.94117e+06, 562011, 189503
1.94679e+06, 561947, 189686
1.95241e+06, 561883, 189874
1.95803e+06, 561819, 190069
1.96364e+06, 561755, 190263
1.96926e+06, 561690, 190457
1.97488e+06, 561626, 190651
1.98049e+06, 561561, 190844
1.98611e+06, 561496, 191038
1.99172e+06, 561431, 191231
1.99734e+06, 561366, 191424
2.00295e+06, 561300, 191617
2.00856e+06, 561234, 191809
2.01417e+06, 561168, 192002
2.01979e+06, 561102, 192194
2.0254e+06, 561036, 192386
2.03101e+06, 560970, 192578
2.03662e+06, 560903, 192769
2.04222e+06, 560836, 192960
2.04783e+06, 560769, 193151
2.05344e+06, 560702, 193342
2.05905e+06, 560635, 193533
2.06465e+06, 560567, 193723
2.07026e+06, 560499, 193923
2.07586e+06, 560431, 194124
2.08147e+06, 560363, 194325
2.08707e+06, 560295, 194525
2.09267e+06, 560227, 194725
2.09827e+06, 560158, 194925
2.10388e+06, 560089, 195125
2.10948e+06, 560020, 195325
2.11508e+06, 559951, 195524
2.12068e+06, 559882, 195723
2.12627e+06, 559812, 195922
2.13187e+06, 559742, 196120
2.13747e+06, 559672, 196319
2.14307e+06, 559602, 196517
2.14866e+06, 559532, 196715
2.15426e+06, 559461, 196912
2.15985e+06, 559391, 197110
2.16544e+06, 559320, 197307
2.17104e+06, 559249, 197504
2.17663e+06, 559178, 197701
2.18222e+06, 559106, 197902
2.18781e+06, 559035, 198109
2.1934e+06, 558963, 198315
2.19899e+06, 558891, 198522
2.20458e+06, 558819, 198728
2.21017e+06, 558747, 198934
2.21575e+06, 558674, 199140
2.22134e+06, 558601, 199345
2.22693e+06, 558529, 199550
2.23251e+06, 558455, 199755
2.23809e+06, 558382, 199960
2.24368e+06, 558309, 200165
2.24926e+06, 558235, 200369
2.25484e+06, 558161, 200573
2.26042e+06, 558087, 200777
2.266e+06, 558013, 200981
2.27158e+06, 557939, 201184
2.27716e+06, 557865, 201387
2.28274e+06, 557790, 201590
2.28832e+06, 557715, 201793
2.2939e+06, 557640, 201995
2.29947e+06, 557565, 202206
2.30505e+06, 557489, 202419
2.31062e+06, 557414, 202631
2.3162e+06, 557338, 202843
2.32177e+06, 557262, 203054
2.32734e+06, 557186, 203266
2.33291e+06, 557109, 203477
2.33848e+06, 557033, 203687
2.34405e+06, 556956, 203898
2.34962e+06, 556879, 204108
2.35519e+06, 556802, 204319
2.36076e+06, 556725, 204528
2.36632e+06, 556648, 204738
2.37189e+06, 556570, 204947
2.37746e+06, 556492, 205156
2.38302e+06, 556414, 205365
2.38858e+06, 556336, 205574
2.39415e+06, 556258, 205782
2.39971e+06, 556179, 205991
2.40527e+06, 556100, 206198
2.41083e+06, 556022, 206409
2.41639e+06, 555942, 206626
2.42195e+06, 555863, 206844
2.42751e+06, 555784, 207061
2.43307e+06, 555704, 207278
2.43862e+06, 555624, 207494
2.44418e+06, 555544, 207710
2.44973e+06, 555464, 207926
2.45529e+06, 555384, 208142
2.46084e+06, 555303, 208358
2.46639e+06, 555223, 208573
2.47195e+06, 555142, 208788
2.4775e+06, 555061, 209003
2.48305e+06, 554979, 209217
2.4886e+06, 554898, 209431
2.49415e+06, 554816, 209645
2.49969e+06, 554735, 209859
2.50524e+06, 554653, 210072
2.51079e+06, 554570, 210286
2.51633e+06, 554488, 210499
2.52188e+06, 554406, 210711
2.52742e+06, 554323, 210930
2.53296e+06, 554240, 211152
2.5385e+06, 554157, 211374
2.54405e+06, 554074, 211595
2.54959e+06, 553990, 211817
2.55513e+06, 553907, 212038
2.56066e+06, 553823, 212258
2.5662e+06, 553739, 212479
2.57174e+06, 553655, 212699
2.57727e+06, 553570, 212919
2.58281e+06, 553486, 213139
2.58834e+06, 553401, 213358
2.59388e+06, 553316, 213578
2.59941e+06, 553231, 213797
2.60494e+06, 553146, 214015
2.61047e+06, 553061, 214234
2.616e+06, 552975, 214452
2.62153e+06, 552889, 214670
2.62706e+06, 552803, 214888
2.63259e+06, 552717, 215105
2.63812e+06, 552631, 215322
2.64364e+06, 552544, 215548
2.64917e+06, 552457, 215774
2.65469e+06, 552371, 216000
2.66021e+06, 552284, 216226
2.66574e+06, 552196, 216451
2.67126e+06, 552109, 216676
2.67678e+06, 552021, 216901
2.6823e+06, 551933, 217126
2.68782e+06, 551846, 217350
2.69334e+06, 551757, 217574
2.69885e+06, 551669, 217798
2.70437e+06, 551581, 218022
2.70988e+06, 551492, 218245
2.7154e+06, 551403, 218468
2.72091e+06, 551314, 218691
2.72642e+06, 551225, 218914
2.73194e+06, 551135, 219136
2.73745e+06, 551046, 219358
2.74296e+06, 550956, 219580
2.74847e+06, 550866, 219801
2.75397e+06, 550776, 220023
2.75948e+06, 550686, 220253
2.76499e+06, 550595, 220484
2.77049e+06, 550504, 220713
2.776e+06, 550414, 220943
2.7815e+06, 550323, 221172
2.78701e+06, 550231, 221401
2.79251e+06, 550140, 221630
2.79801e+06, 550048, 221858
2.80351e+06, 549957, 222086
2.80901e+06, 549865, 222314
2.81451e+06, 549773, 222542
2.82e+06, 549680, 222769
2.8255e+06, 549588, 222996
2.83099e+06, 549495, 223223
2.83649e+06, 549402, 223450
2.84198e+06, 549309, 223676
2.84748e+06, 549216, 223902
2.85297e+06, 549123, 224128
2.85846e+06, 549029, 224353
2.86395e+06, 548935, 224578
2.86944e+06, 548842, 224805
2.87492e+06, 548747, 225039
2.88041e+06, 548653, 225273
2.8859e+06, 548559, 225506
2.89138e+06, 548464, 225739
2.89687e+06, 548369, 225972
2.90235e+06, 548274, 226204
2.90783e+06, 548179, 226436
2.91331e+06, 548084, 226668
2.91879e+06, 547988, 226900
2.92427e+06, 547893, 227131
2.92975e+06, 547797, 227362
2.93523e+06, 547701, 227593
2.94071e+06, 547604, 227824
2.94618e+06, 547508, 228054
2.95166e+06, 547411, 228284
2.95713e+06, 547314, 228513
2.9626e+06, 547218, 228743
2.96807e+06, 547120, 228972
2.97354e+06, 547023, 229201
2.97901e+06, 546926, 229430
2.98448e+06, 546828, 229660
2.98995e+06, 546730, 229897
2.99542e+06, 546632, 230134
3.00088e+06, 546534, 230370
3.00635e+06, 546435, 230607
3.01181e+06, 546337, 230843
3.01727e+06, 546238, 231078
3.02274e+06, 546139, 231313
3.0282e+06, 546040, 231548
3.03366e+06, 545941, 231783
3.03912e+06, 545841, 232018
3.04457e+06, 545742, 232252
3.05003e+06, 545642, 232486
3.05549e+06, 545542, 232719
3.06094e+06, 545442, 232953
3.0664e+06, 545341, 233186
3.07185e+06, 545241, 233419
3.0773e+06, 545140, 233651
3.08275e+06, 545039, 233883
3.0882e+06, 544938, 234115
3.09365e+06, 544837, 234347
3.0991e+06, 544735, 234581
3.10455e+06, 544634, 234820
3.10999e+06, 544532, 235060
3.11544e+06, 544430, 235299
3.12088e+06, 544328, 235538
3.12632e+06, 544225, 235777
3.13176e+06, 544123, 236016
3.1372e+06, 544020, 236254
3.14264e+06, 543917, 236492
3.14808e+06, 543814, 236729
3.15352e+06, 543711, 236966
3.15896e+06, 543608, 237203
3.16439e+06, 543504, 237440
3.16983e+06, 543400, 237677
3.17526e+06, 543296, 237913
3.18069e+06, 543192, 238149
3.18612e+06, 543088, 238384
3.19156e+06, 542984, 238620
3.19698e+06, 542879, 238855
3.20241e+06, 542774, 239090
3.20784e+06, 542669, 239324
3.21327e+06, 542564, 239559
3.21869e+06, 542459, 239802
3.22412e+06, 542353, 240044
3.22954e+06, 542247, 240286
3.23496e+06, 542141, 240528
3.24038e+06, 542035, 240769
3.2458e+06, 541929, 241010
3.25122e+06, 541823, 241251
3.25664e+06, 541716, 241491
3.26205e+06, 541609, 241731
3.26747e+06, 541502, 241971
3.27288e+06, 541395, 242211
3.2783e+06, 541288, 242450
3.28371e+06, 541180, 242689
3.28912e+06, 541073, 242928
3.29453e+06, 540965, 243166
3.29994e+06, 540857, 243404
3.30535e+06, 540749, 243642
3.31076e+06, 540640, 243880
3.31616e+06, 540532, 244117
3.32157e+06, 540423, 244354
3.32697e+06, 540314, 244591
3.33237e+06, 540205, 244835
3.33777e+06, 540096, 245080
3.34317e+06, 539986, 245324
3.34857e+06, 539877, 245568
3.35397e+06, 539767, 245812
3.35937e+06, 539657, 246055
3.36476e+06, 539547, 246298
3.37016e+06, 539437, 246541
3.37555e+06, 539326, 246783
3.38095e+06, 539215, 247025
3.38634e+06, 539105, 247267
3.39173e+06, 538994, 247509
3.39712e+06, 538882, 247750
3.40251e+06, 538771, 247991
3.40789e+06, 538659, 248232
3.41328e+06, 538548, 248472
3.41866e+06, 538436, 248713
3.42405e+06, 538324, 248952
3.42943e+06, 538211, 249192
3.43481e+06, 538099, 249431
3.44019e+06, 537986, 249670
3.44557e+06, 537874, 249915
3.45095e+06, 537761, 250161
3.45633e+06, 537648, 250408
3.4617e+06, 537534, 250654
3.46708e+06, 537421, 250899
3.47245e+06, 537307, 251145
3.47782e+06, 537193, 251390
3.4832e+06, 537079, 251635
3.48857e+06, 536965, 251879
3.49393e+06, 536851, 252123
3.4993e+06, 536736, 252367
3.50467e+06, 536621, 252611
3.51004e+06, 536506, 252854
3.5154e+06, 536391, 253097
3.52076e+06, 536276, 253340
3.52613e+06, 536161, 253583
3.53149e+06, 536045, 253825
3.53685e+06, 535929, 254067
3.5422e+06, 535813, 254309
3.54756e+06, 535697, 254550
3.55292e+06, 535581, 254791
3.55827e+06, 535464, 255034
3.56363e+06, 535348, 255283
3.56898e+06, 535231, 255531
3.57433e+06, 535114, 255779
3.57968e+06, 534997, 256026
3.58503e+06, 534879, 256274
3.59038e+06, 534762, 256520
3.59573e+06, 534644, 256767
3.60107e+06, 534526, 257014
3.60642e+06, 534408, 257260
3.61176e+06, 534290, 257505
3.6171e+06, 534172, 257751
3.62245e+06, 534053, 257996
3.62779e+06, 533934, 258241
3.63312e+06, 533815, 258486
3.63846e+06, 533696, 258730
3.6438e+06, 533577, 258974
3.64913e+06, 533457, 259218
3.65447e+06, 533338, 259461
3.6598e+06, 533218, 259705
3.66513e+06, 533098, 259948
3.67046e+06, 532978, 260190
3.67579e+06, 532858, 260439
3.68112e+06, 532737, 260689
3.68645e+06, 532616, 260938
3.69177e+06, 532495, 261187
3.6971e+06, 532374, 261436
3.70242e+06, 532253, 261685
3.70774e+06, 532132, 261933
3.71306e+06, 532010, 262181
3.71838e+06, 531889, 262429
3.7237e+06, 531767, 262676
3.72902e+06, 531645, 262924
3.73433e+06, 531522, 263170
3.73965e+06, 531400, 263417
3.74496e+06, 531277, 263663
3.75027e+06, 531155, 263909
3.75558e+06, 531032, 264155
3.76089e+06, 530909, 264400
3.7662e+06, 530785, 264646
3.77151e+06, 530662, 264890
3.77681e+06, 530538, 265135
3.78212e+06, 530414, 265379
3.78742e+06, 530290, 265625
3.79272e+06, 530166, 265876
3.79803e+06, 530042, 266127
3.80333e+06, 529917, 266378
3.80862e+06, 529793, 266628
3.81392e+06, 529668, 266878
3.81922e+06, 529543, 267128
3.82451e+06, 529418, 267377
3.82981e+06, 529292, 267627
3.8351e+06, 529167, 267876
3.84039e+06, 529041, 268124
3.84568e+06, 528915, 268372
3.85097e+06, 528789, 268620
3.85625e+06, 528663, 268868
3.86154e+06, 528536, 269116
3.86683e+06, 528410, 269363
3.87211e+06, 528283, 269610
3.87739e+06, 528156, 269856
3.88267e+06, 528029, 270102
3.88795e+06, 527902, 270348
3.89323e+06, 527774, 270594
3.89851e+06, 527646, 270840
3.90378e+06, 527519, 271089
3.90906e+06, 527391, 271341
3.91433e+06, 527263, 271593
3.9196e+06, 527134, 271844
3.92487e+06, 527006, 272096
3.93014e+06, 526877, 272347
3.93541e+06, 526748, 272597
3.94068e+06, 526619, 272848
3.94594e+06, 526490, 273098
3.95121e+06, 526361, 273348
3.95647e+06, 526231, 273597
3.96173e+06, 526101, 273847
3.96699e+06, 525972, 274096
3.97225e+06, 525842, 274344
3.97751e+06, 525711, 274593
3.98277e+06, 525581, 274841
3.98802e+06, 525450, 275089
3.99328e+06, 525320, 275336
3.99853e+06, 525189, 275583
4.00378e+06, 525058, 275830
4.00903e+06, 524926, 276077
4.01428e+06, 524795, 276324
4.01952e+06, 524663, 276575
4.02477e+06, 524532, 276828
4.03002e+06, 524400, 277081
4.03526e+06, 524268, 277333
4.0405e+06, 524135, 277585
4.04574e+06, 524003, 277837
4.05098e+06, 523870, 278088
4.05622e+06, 523737, 278340
4.06146e+06, 523605, 278591
4.06669e+06, 523471, 278841
4.07192e+06, 523338, 279092
4.07716e+06, 523205, 279342
4.08239e+06, 523071, 279591
4.08762e+06, 522937, 279841
4.09285e+06, 522803, 280090
4.09808e+06, 522669, 280339
4.1033e+06, 522535, 280588
4.10853e+06, 522400, 280836
4.11375e+06, 522265, 281084
4.11897e+06, 522131, 281332
4.12419e+06, 521996, 281579
4.12941e+06, 521860, 281826
4.13463e+06, 521725, 282079
4.13985e+06, 521589, 282333
