s(m), v_par(m/s), v_perp(m/s)
0, 1.32621e+07, 1.32621e+07
132607, 1.32587e+07, 1.32665e+07
265140, 1.32472e+07, 1.32789e+07
397517, 1.32276e+07, 1.32992e+07
529658, 1.31999e+07, 1.33273e+07
661482, 1.31642e+07, 1.33631e+07
792909, 1.31204e+07, 1.34064e+07
923857, 1.30686e+07, 1.34575e+07
1.05425e+06, 1.30088e+07, 1.35162e+07
1.184e+06, 1.29411e+07, 1.35819e+07
1.31304e+06, 1.28654e+07, 1.36543e+07
1.44128e+06, 1.27818e+07, 1.37332e+07
1.56864e+06, 1.26905e+07, 1.38182e+07
1.69505e+06, 1.25914e+07, 1.3909e+07
1.82044e+06, 1.24846e+07, 1.40054e+07
1.94471e+06, 1.23701e+07, 1.41069e+07
2.06781e+06, 1.22481e+07, 1.42135e+07
2.18964e+06, 1.21186e+07, 1.43247e+07
2.31015e+06, 1.19816e+07, 1.44401e+07
2.42924e+06, 1.18374e+07, 1.45591e+07
2.54686e+06, 1.16859e+07, 1.46815e+07
2.66293e+06, 1.15272e+07, 1.48069e+07
2.77738e+06, 1.13615e+07, 1.49349e+07
2.89013e+06, 1.11888e+07, 1.50651e+07
3.00113e+06, 1.10093e+07, 1.51971e+07
3.11029e+06, 1.08231e+07, 1.53306e+07
3.21756e+06, 1.06302e+07, 1.54652e+07
3.32287e+06, 1.04308e+07, 1.56007e+07
3.42615e+06, 1.0225e+07, 1.57369e+07
3.52734e+06, 1.0013e+07, 1.58732e+07
3.62638e+06, 9.79485e+06, 1.60091e+07
3.72321e+06, 9.57069e+06, 1.61444e+07
3.81777e+06, 9.34067e+06, 1.62788e+07
3.91e+06, 9.10492e+06, 1.64117e+07
3.99985e+06, 8.8636e+06, 1.65437e+07
4.08725e+06, 8.61685e+06, 1.6674e+07
4.17216e+06, 8.36482e+06, 1.68021e+07
4.25453e+06, 8.10766e+06, 1.69275e+07
4.3343e+06, 7.84553e+06, 1.7051e+07
4.41142e+06, 7.5786e+06, 1.71717e+07
4.48585e+06, 7.30701e+06, 1.72888e+07
4.55754e+06, 7.03095e+06, 1.74033e+07
4.62645e+06, 6.75058e+06, 1.75141e+07
4.69254e+06, 6.46606e+06, 1.7621e+07
4.75575e+06, 6.17758e+06, 1.77246e+07
4.81607e+06, 5.88531e+06, 1.78234e+07
4.87345e+06, 5.58942e+06, 1.7919e+07
4.92784e+06, 5.2901e+06, 1.80093e+07
4.97923e+06, 4.98754e+06, 1.80959e+07
5.02758e+06, 4.68191e+06, 1.81772e+07
5.07286e+06, 4.3734e+06, 1.8254e+07
5.11504e+06, 4.0622e+06, 1.8326e+07
5.15409e+06, 3.7485e+06, 1.83924e+07
5.19e+06, 3.4325e+06, 1.84542e+07
5.22274e+06, 3.11438e+06, 1.85107e+07
5.25228e+06, 2.79435e+06, 1.85616e+07
5.27861e+06, 2.47258e+06, 1.86069e+07
5.30172e+06, 2.14929e+06, 1.86473e+07
5.3216e+06, 1.82467e+06, 1.86821e+07
5.33821e+06, 1.49892e+06, 1.8711e+07
5.35157e+06, 1.17224e+06, 1.87343e+07
5.36166e+06, 844818, 1.87519e+07
5.36846e+06, 516867, 1.87637e+07
5.37199e+06, 188583, 1.87698e+07
5.37224e+06, -139833, 1.87702e+07
5.36919e+06, -468180, 1.8765e+07
5.36287e+06, -796258, 1.8754e+07
5.35327e+06, -1.12387e+06, 1.87373e+07
5.3404e+06, -1.4508e+06, 1.87148e+07
5.32426e+06, -1.77687e+06, 1.86867e+07
5.30487e+06, -2.10187e+06, 1.86528e+07
5.28223e+06, -2.4256e+06, 1.86132e+07
5.25636e+06, -2.74786e+06, 1.85686e+07
5.22728e+06, -3.06846e+06, 1.85186e+07
5.195e+06, -3.3872e+06, 1.84629e+07
5.15954e+06, -3.70389e+06, 1.84016e+07
5.12093e+06, -4.01832e+06, 1.8336e+07
5.07919e+06, -4.33032e+06, 1.82648e+07
5.03433e+06, -4.63969e+06, 1.81885e+07
4.9864e+06, -4.94624e+06, 1.8108e+07
4.93542e+06, -5.24977e+06, 1.80219e+07
4.88142e+06, -5.55012e+06, 1.79322e+07
4.82443e+06, -5.84709e+06, 1.78373e+07
4.76449e+06, -6.1405e+06, 1.7739e+07
4.70164e+06, -6.43017e+06, 1.76356e+07
4.63591e+06, -6.71592e+06, 1.75294e+07
4.56734e+06, -6.99758e+06, 1.74189e+07
4.49597e+06, -7.27498e+06, 1.7305e+07
4.42186e+06, -7.54795e+06, 1.71881e+07
4.34503e+06, -7.81632e+06, 1.70676e+07
4.26555e+06, -8.07992e+06, 1.69446e+07
4.18346e+06, -8.3386e+06, 1.68193e+07
4.0988e+06, -8.59219e+06, 1.66913e+07
4.01163e+06, -8.84055e+06, 1.65609e+07
3.92201e+06, -9.08351e+06, 1.64294e+07
3.82999e+06, -9.32093e+06, 1.62964e+07
3.73562e+06, -9.55267e+06, 1.61619e+07
3.63896e+06, -9.77858e+06, 1.60265e+07
3.54007e+06, -9.99852e+06, 1.58903e+07
3.43901e+06, -1.02124e+07, 1.57538e+07
3.33585e+06, -1.042e+07, 1.56177e+07
3.23064e+06, -1.06212e+07, 1.54821e+07
3.12345e+06, -1.0816e+07, 1.53471e+07
3.01435e+06, -1.10042e+07, 1.52132e+07
2.90339e+06, -1.11856e+07, 1.50808e+07
2.79066e+06, -1.13602e+07, 1.49501e+07
2.67622e+06, -1.15279e+07, 1.48217e+07
2.56013e+06, -1.16886e+07, 1.46958e+07
2.44248e+06, -1.18421e+07, 1.45728e+07
2.32332e+06, -1.19884e+07, 1.44532e+07
2.20274e+06, -1.21273e+07, 1.43372e+07
2.0808e+06, -1.22589e+07, 1.42253e+07
1.95759e+06, -1.2383e+07, 1.41178e+07
1.83318e+06, -1.24995e+07, 1.40152e+07
1.70763e+06, -1.26083e+07, 1.39182e+07
1.58104e+06, -1.27095e+07, 1.38267e+07
1.45348e+06, -1.28029e+07, 1.3741e+07
1.32502e+06, -1.28885e+07, 1.36614e+07
1.19574e+06, -1.29662e+07, 1.35883e+07
1.06573e+06, -1.3036e+07, 1.35219e+07
935053, -1.30978e+07, 1.34624e+07
803802, -1.31516e+07, 1.34102e+07
672053, -1.31974e+07, 1.33661e+07
539887, -1.32351e+07, 1.33297e+07
407384, -1.32648e+07, 1.3301e+07
274625, -1.32863e+07, 1.32801e+07
141692, -1.32997e+07, 1.32672e+07
8665.3, -1.3305e+07, 1.32623e+07
-124374, -1.33021e+07, 1.32658e+07
-257343, -1.32911e+07, 1.32779e+07
-390162, -1.3272e+07, 1.32978e+07
-522750, -1.32448e+07, 1.33256e+07
-655024, -1.32095e+07, 1.33612e+07
-786905, -1.3166e+07, 1.34044e+07
-918311, -1.31146e+07, 1.3455e+07
-1.04916e+06, -1.30551e+07, 1.35137e+07
-1.17938e+06, -1.29877e+07, 1.35794e+07
-1.30888e+06, -1.29123e+07, 1.36519e+07
-1.43759e+06, -1.2829e+07, 1.37308e+07
-1.56543e+06, -1.27378e+07, 1.3816e+07
-1.69232e+06, -1.26389e+07, 1.3907e+07
-1.81818e+06, -1.25322e+07, 1.40036e+07
-1.94293e+06, -1.24179e+07, 1.41054e+07
-2.0665e+06, -1.2296e+07, 1.42123e+07
-2.18882e+06, -1.21665e+07, 1.43239e+07
-2.3098e+06, -1.20296e+07, 1.44397e+07
-2.42938e+06, -1.18854e+07, 1.45593e+07
-2.54748e+06, -1.17339e+07, 1.46822e+07
-2.66403e+06, -1.15752e+07, 1.48081e+07
-2.77895e+06, -1.14094e+07, 1.49367e+07
-2.89219e+06, -1.12366e+07, 1.50675e+07
-3.00366e+06, -1.10569e+07, 1.52002e+07
-3.1133e+06, -1.08705e+07, 1.53344e+07
-3.22104e+06, -1.06775e+07, 1.54697e+07
-3.32682e+06, -1.04778e+07, 1.56058e+07
-3.43057e+06, -1.02718e+07, 1.57427e+07
-3.53223e+06, -1.00595e+07, 1.58797e+07
-3.63173e+06, -9.84104e+06, 1.60165e+07
-3.72902e+06, -9.61654e+06, 1.61526e+07
-3.82404e+06, -9.38615e+06, 1.62878e+07
-3.91672e+06, -9.15001e+06, 1.64216e+07
-4.00702e+06, -8.90826e+06, 1.65542e+07
-4.09487e+06, -8.66106e+06, 1.66854e+07
-4.18022e+06, -8.40855e+06, 1.68144e+07
-4.26302e+06, -8.15089e+06, 1.69407e+07
-4.34321e+06, -7.88824e+06, 1.70647e+07
-4.42076e+06, -7.62074e+06, 1.71863e+07
-4.49561e+06, -7.34858e+06, 1.73044e+07
-4.56771e+06, -7.07191e+06, 1.74194e+07
-4.63703e+06, -6.7909e+06, 1.75313e+07
-4.70351e+06, -6.50573e+06, 1.76386e+07
-4.76713e+06, -6.21657e+06, 1.77433e+07
-4.82783e+06, -5.92359e+06, 1.78429e+07
-4.88558e+06, -5.62698e+06, 1.79392e+07
-4.94035e+06, -5.32691e+06, 1.80302e+07
-4.99211e+06, -5.02357e+06, 1.81176e+07
-5.04081e+06, -4.71714e+06, 1.81994e+07
-5.08644e+06, -4.40781e+06, 1.82772e+07
-5.12896e+06, -4.09578e+06, 1.83497e+07
-5.16834e+06, -3.78122e+06, 1.84167e+07
-5.20457e+06, -3.46434e+06, 1.84794e+07
-5.23762e+06, -3.14532e+06, 1.85364e+07
-5.26747e+06, -2.82437e+06, 1.85877e+07
-5.2941e+06, -2.50167e+06, 1.8634e+07
-5.3175e+06, -2.17743e+06, 1.86749e+07
-5.33764e+06, -1.85183e+06, 1.871e+07
-5.35453e+06, -1.52509e+06, 1.87395e+07
-5.36814e+06, -1.19741e+06, 1.87631e+07
-5.37847e+06, -868968, 1.87811e+07
-5.38552e+06, -539983, 1.87933e+07
-5.38927e+06, -210651, 1.87998e+07
-5.38973e+06, 118827, 1.88006e+07
-5.3869e+06, 448249, 1.87957e+07
-5.38077e+06, 777414, 1.87851e+07
-5.37135e+06, 1.10612e+06, 1.87687e+07
-5.35865e+06, 1.43417e+06, 1.87466e+07
-5.34267e+06, 1.76135e+06, 1.87188e+07
-5.32343e+06, 2.08748e+06, 1.86852e+07
-5.30093e+06, 2.41235e+06, 1.86459e+07
-5.27518e+06, 2.73576e+06, 1.86009e+07
-5.24622e+06, 3.05751e+06, 1.85512e+07
-5.21404e+06, 3.37741e+06, 1.84958e+07
-5.17868e+06, 3.69527e+06, 1.84346e+07
-5.14015e+06, 4.01088e+06, 1.83687e+07
-5.09847e+06, 4.32405e+06, 1.82977e+07
-5.05368e+06, 4.6346e+06, 1.82212e+07
-5.00579e+06, 4.94233e+06, 1.81406e+07
-4.95484e+06, 5.24705e+06, 1.80547e+07
-4.90086e+06, 5.54858e+06, 1.79645e+07
-4.84388e+06, 5.84674e+06, 1.78697e+07
-4.78394e+06, 6.14134e+06, 1.77708e+07
-4.72107e+06, 6.4322e+06, 1.76676e+07
-4.65531e+06, 6.71914e+06, 1.75609e+07
-4.58671e+06, 7.00199e+06, 1.74496e+07
-4.51529e+06, 7.28057e+06, 1.73359e+07
-4.44111e+06, 7.55472e+06, 1.72183e+07
-4.36422e+06, 7.82426e+06, 1.70973e+07
-4.28465e+06, 8.08903e+06, 1.69742e+07
-4.20246e+06, 8.34888e+06, 1.68482e+07
-4.11769e+06, 8.60363e+06, 1.67194e+07
-4.03041e+06, 8.85314e+06, 1.65889e+07
-3.94065e+06, 9.09724e+06, 1.64569e+07
-3.84848e+06, 9.3358e+06, 1.6323e+07
-3.75396e+06, 9.56867e+06, 1.61878e+07
-3.65714e+06, 9.79569e+06, 1.60515e+07
-3.55807e+06, 1.00167e+07, 1.59146e+07
-3.45683e+06, 1.02317e+07, 1.57778e+07
-3.35346e+06, 1.04404e+07, 1.5641e+07
-3.24805e+06, 1.06427e+07, 1.55045e+07
-3.14064e+06, 1.08385e+07, 1.53687e+07
-3.0313e+06, 1.10277e+07, 1.5234e+07
-2.92011e+06, 1.12102e+07, 1.51006e+07
-2.80713e+06, 1.13859e+07, 1.49691e+07
-2.69242e+06, 1.15546e+07, 1.48397e+07
-2.57606e+06, 1.17162e+07, 1.47129e+07
-2.45813e+06, 1.18707e+07, 1.4589e+07
-2.33868e+06, 1.20179e+07, 1.44684e+07
-2.2178e+06, 1.21578e+07, 1.43516e+07
-2.09556e+06, 1.22903e+07, 1.42388e+07
-1.97203e+06, 1.24152e+07, 1.41304e+07
-1.84728e+06, 1.25326e+07, 1.40268e+07
-1.72141e+06, 1.26423e+07, 1.39283e+07
-1.59447e+06, 1.27443e+07, 1.38359e+07
-1.46655e+06, 1.28385e+07, 1.37493e+07
-1.33773e+06, 1.29249e+07, 1.36689e+07
-1.20809e+06, 1.30034e+07, 1.3595e+07
-1.0777e+06, 1.30739e+07, 1.35278e+07
-946640, 1.31365e+07, 1.34676e+07
-814999, 1.3191e+07, 1.34145e+07
-682854, 1.32375e+07, 1.33692e+07
-550284, 1.32758e+07, 1.33321e+07
-417371, 1.33061e+07, 1.33028e+07
-284196, 1.33282e+07, 1.32814e+07
-150841, 1.33422e+07, 1.32679e+07
-17386.7, 1.3348e+07, 1.32625e+07
116085, 1.33457e+07, 1.32652e+07
249493, 1.33352e+07, 1.32768e+07
382754, 1.33165e+07, 1.32964e+07
515789, 1.32897e+07, 1.3324e+07
648515, 1.32548e+07, 1.33593e+07
780852, 1.32118e+07, 1.34023e+07
912718, 1.31607e+07, 1.34528e+07
1.04403e+06, 1.31016e+07, 1.35112e+07
1.17472e+06, 1.30344e+07, 1.35769e+07
1.30469e+06, 1.29593e+07, 1.36494e+07
1.43387e+06, 1.28762e+07, 1.37285e+07
1.56218e+06, 1.27853e+07, 1.38137e+07
1.68954e+06, 1.26866e+07, 1.3905e+07
1.81588e+06, 1.25801e+07, 1.40018e+07
1.94111e+06, 1.24659e+07, 1.4104e+07
2.06516e+06, 1.2344e+07, 1.4211e+07
2.18796e+06, 1.22146e+07, 1.43231e+07
2.30943e+06, 1.20778e+07, 1.44393e+07
2.42949e+06, 1.19336e+07, 1.45594e+07
2.54807e+06, 1.1782e+07, 1.46828e+07
2.6651e+06, 1.16233e+07, 1.48093e+07
2.7805e+06, 1.14574e+07, 1.49385e+07
2.89421e+06, 1.12845e+07, 1.50699e+07
3.00616e+06, 1.11047e+07, 1.52032e+07
3.11628e+06, 1.09181e+07, 1.53381e+07
3.2245e+06, 1.07249e+07, 1.54742e+07
3.33075e+06, 1.0525e+07, 1.5611e+07
3.43497e+06, 1.03188e+07, 1.57485e+07
3.5371e+06, 1.01062e+07, 1.58863e+07
3.63707e+06, 9.88739e+06, 1.60239e+07
3.73482e+06, 9.66256e+06, 1.61608e+07
3.8303e+06, 9.4318e+06, 1.62968e+07
3.92343e+06, 9.19527e+06, 1.64315e+07
4.01418e+06, 8.9531e+06, 1.65646e+07
4.10247e+06, 8.70545e+06, 1.66967e+07
4.18827e+06, 8.45247e+06, 1.68266e+07
4.2715e+06, 8.1943e+06, 1.69539e+07
4.35213e+06, 7.93112e+06, 1.70785e+07
4.4301e+06, 7.66307e+06, 1.7201e+07
4.50537e+06, 7.39032e+06, 1.732e+07
4.57789e+06, 7.11304e+06, 1.74356e+07
4.64761e+06, 6.8314e+06, 1.75484e+07
4.7145e+06, 6.54558e+06, 1.76567e+07
4.77851e+06, 6.25573e+06, 1.77619e+07
4.8396e+06, 5.96205e+06, 1.78626e+07
4.89773e+06, 5.6647e+06, 1.79593e+07
4.95288e+06, 5.36388e+06, 1.80514e+07
5.005e+06, 5.05977e+06, 1.81393e+07
5.05406e+06, 4.75254e+06, 1.82218e+07
5.10004e+06, 4.4424e+06, 1.83004e+07
5.1429e+06, 4.12952e+06, 1.83734e+07
5.18262e+06, 3.81411e+06, 1.84415e+07
5.21917e+06, 3.49634e+06, 1.85046e+07
5.25254e+06, 3.17642e+06, 1.8562e+07
5.28269e+06, 2.85455e+06, 1.8614e+07
5.30962e+06, 2.53091e+06, 1.86611e+07
5.3333e+06, 2.20571e+06, 1.87025e+07
5.35373e+06, 1.87915e+06, 1.87381e+07
5.37088e+06, 1.55142e+06, 1.87679e+07
5.38475e+06, 1.22272e+06, 1.8792e+07
5.39533e+06, 893264, 1.88104e+07
5.40261e+06, 563242, 1.88233e+07
5.4066e+06, 232859, 1.88304e+07
5.40727e+06, -97683.5, 1.88316e+07
5.40464e+06, -428183, 1.88269e+07
5.39871e+06, -758438, 1.88164e+07
5.38947e+06, -1.08825e+06, 1.88002e+07
5.37695e+06, -1.4174e+06, 1.87784e+07
5.36113e+06, -1.74571e+06, 1.87509e+07
5.34204e+06, -2.07297e+06, 1.87177e+07
5.31968e+06, -2.39898e+06, 1.86787e+07
5.29406e+06, -2.72354e+06, 1.86339e+07
5.26521e+06, -3.04645e+06, 1.85838e+07
5.23314e+06, -3.36752e+06, 1.85287e+07
5.19787e+06, -3.68654e+06, 1.84678e+07
5.15942e+06, -4.00333e+06, 1.84014e+07
5.11781e+06, -4.31768e+06, 1.83307e+07
5.07308e+06, -4.62941e+06, 1.82544e+07
5.02524e+06, -4.93833e+06, 1.81733e+07
4.97432e+06, -5.24424e+06, 1.80876e+07
4.92037e+06, -5.54697e+06, 1.79969e+07
4.8634e+06, -5.84632e+06, 1.79023e+07
4.80345e+06, -6.14211e+06, 1.78028e+07
4.74057e+06, -6.43416e+06, 1.76997e+07
4.67479e+06, -6.72229e+06, 1.75923e+07
4.60614e+06, -7.00633e+06, 1.74811e+07
4.53468e+06, -7.2861e+06, 1.73668e+07
4.46044e+06, -7.56143e+06, 1.72486e+07
4.38347e+06, -7.83215e+06, 1.71276e+07
4.30382e+06, -8.0981e+06, 1.70039e+07
4.22153e+06, -8.35911e+06, 1.68771e+07
4.13665e+06, -8.61503e+06, 1.67479e+07
4.04925e+06, -8.86569e+06, 1.66172e+07
3.95936e+06, -9.11095e+06, 1.64844e+07
3.86705e+06, -9.35065e+06, 1.63497e+07
3.77237e+06, -9.58464e+06, 1.62137e+07
3.67538e+06, -9.81279e+06, 1.60768e+07
3.57614e+06, -1.0035e+07, 1.59396e+07
3.47471e+06, -1.0251e+07, 1.58021e+07
3.37115e+06, -1.04608e+07, 1.56644e+07
3.26552e+06, -1.06642e+07, 1.55271e+07
3.15789e+06, -1.08611e+07, 1.53904e+07
3.04833e+06, -1.10513e+07, 1.52547e+07
2.93689e+06, -1.12348e+07, 1.51205e+07
2.82366e+06, -1.14115e+07, 1.4988e+07
2.70869e+06, -1.15812e+07, 1.48578e+07
2.59207e+06, -1.17438e+07, 1.473e+07
2.47385e+06, -1.18993e+07, 1.46052e+07
2.35411e+06, -1.20475e+07, 1.44838e+07
2.23293e+06, -1.21883e+07, 1.4366e+07
2.11038e+06, -1.23217e+07, 1.42523e+07
1.98653e+06, -1.24475e+07, 1.4143e+07
1.86146e+06, -1.25658e+07, 1.40384e+07
1.73524e+06, -1.26764e+07, 1.39391e+07
1.60796e+06, -1.27792e+07, 1.38452e+07
1.47969e+06, -1.28742e+07, 1.37577e+07
1.35051e+06, -1.29614e+07, 1.36765e+07
1.2205e+06, -1.30407e+07, 1.36017e+07
1.08973e+06, -1.31119e+07, 1.35337e+07
958290, -1.31752e+07, 1.34727e+07
826259, -1.32304e+07, 1.3419e+07
693715, -1.32776e+07, 1.33726e+07
560741, -1.33166e+07, 1.33346e+07
427417, -1.33475e+07, 1.33047e+07
293826, -1.33702e+07, 1.32827e+07
160047, -1.33848e+07, 1.32687e+07
26164.5, -1.33911e+07, 1.32627e+07
-107741, -1.33893e+07, 1.32649e+07
-241588, -1.33793e+07, 1.32758e+07
-375294, -1.33612e+07, 1.32951e+07
-508777, -1.33348e+07, 1.33223e+07
-641956, -1.33003e+07, 1.33574e+07
-774749, -1.32577e+07, 1.34002e+07
-907076, -1.3207e+07, 1.34506e+07
-1.03885e+06, -1.31481e+07, 1.35086e+07
-1.17e+06, -1.30813e+07, 1.35744e+07
-1.30045e+06, -1.30064e+07, 1.36469e+07
-1.4301e+06, -1.29236e+07, 1.3726e+07
-1.55889e+06, -1.28329e+07, 1.38115e+07
-1.68673e+06, -1.27344e+07, 1.39029e+07
-1.81354e+06, -1.2628e+07, 1.4e+07
-1.93925e+06, -1.2514e+07, 1.41024e+07
-2.06379e+06, -1.23922e+07, 1.42099e+07
-2.18707e+06, -1.22629e+07, 1.43223e+07
-2.30902e+06, -1.21261e+07, 1.44389e+07
-2.42956e+06, -1.19819e+07, 1.45595e+07
-2.54862e+06, -1.18303e+07, 1.46834e+07
-2.66614e+06, -1.16715e+07, 1.48105e+07
-2.78202e+06, -1.15056e+07, 1.49402e+07
-2.89622e+06, -1.13326e+07, 1.50723e+07
-3.00865e+06, -1.11527e+07, 1.52063e+07
-3.11924e+06, -1.09659e+07, 1.53418e+07
-3.22794e+06, -1.07725e+07, 1.54786e+07
-3.33466e+06, -1.05724e+07, 1.56161e+07
-3.43936e+06, -1.03659e+07, 1.57542e+07
-3.54196e+06, -1.0153e+07, 1.58928e+07
-3.64239e+06, -9.93392e+06, 1.60312e+07
-3.74061e+06, -9.70875e+06, 1.6169e+07
-3.83654e+06, -9.47763e+06, 1.63058e+07
-3.93014e+06, -9.2407e+06, 1.64414e+07
-4.02133e+06, -8.99811e+06, 1.65753e+07
-4.11008e+06, -8.75001e+06, 1.67081e+07
-4.19631e+06, -8.49655e+06, 1.68388e+07
-4.27999e+06, -8.23788e+06, 1.6967e+07
-4.36105e+06, -7.97417e+06, 1.70923e+07
-4.43945e+06, -7.70556e+06, 1.72157e+07
-4.51514e+06, -7.43224e+06, 1.73356e+07
-4.58807e+06, -7.15435e+06, 1.74518e+07
-4.65821e+06, -6.87208e+06, 1.75655e+07
-4.7255e+06, -6.58559e+06, 1.76749e+07
-4.7899e+06, -6.29506e+06, 1.77806e+07
-4.85138e+06, -6.00067e+06, 1.78823e+07
-4.9099e+06, -5.7026e+06, 1.79795e+07
-4.96542e+06, -5.40102e+06, 1.80726e+07
-5.01791e+06, -5.09613e+06, 1.8161e+07
-5.06733e+06, -4.78811e+06, 1.82445e+07
-5.11366e+06, -4.47715e+06, 1.83236e+07
-5.15686e+06, -4.16343e+06, 1.83971e+07
-5.19692e+06, -3.84715e+06, 1.84662e+07
-5.2338e+06, -3.5285e+06, 1.85298e+07
-5.26748e+06, -3.20769e+06, 1.85877e+07
-5.29794e+06, -2.88489e+06, 1.86407e+07
-5.32517e+06, -2.56031e+06, 1.86883e+07
-5.34914e+06, -2.23416e+06, 1.87301e+07
-5.36984e+06, -1.90661e+06, 1.87661e+07
-5.38727e+06, -1.57789e+06, 1.87963e+07
-5.4014e+06, -1.24819e+06, 1.88212e+07
-5.41223e+06, -917706, 1.88403e+07
-5.41975e+06, -586645, 1.88536e+07
-5.42396e+06, -255208, 1.88611e+07
-5.42485e+06, 76401.3, 1.88627e+07
-5.42243e+06, 407981, 1.88584e+07
-5.4167e+06, 739328, 1.88482e+07
-5.40765e+06, 1.07024e+06, 1.88322e+07
-5.39529e+06, 1.40051e+06, 1.88104e+07
-5.37964e+06, 1.72995e+06, 1.87831e+07
-5.3607e+06, 2.05835e+06, 1.87502e+07
-5.33848e+06, 2.3855e+06, 1.87115e+07
-5.31299e+06, 2.71121e+06, 1.8667e+07
-5.28426e+06, 3.03528e+06, 1.86168e+07
-5.2523e+06, 3.35751e+06, 1.85616e+07
-5.21712e+06, 3.67771e+06, 1.85011e+07
-5.17875e+06, 3.99567e+06, 1.84348e+07
-5.13722e+06, 4.31121e+06, 1.83637e+07
-5.09254e+06, 4.62413e+06, 1.82876e+07
-5.04474e+06, 4.93424e+06, 1.8206e+07
-4.99387e+06, 5.24135e+06, 1.81205e+07
-4.93993e+06, 5.54527e+06, 1.80295e+07
-4.88297e+06, 5.84581e+06, 1.79348e+07
-4.82303e+06, 6.1428e+06, 1.78349e+07
-4.76013e+06, 6.43605e+06, 1.77318e+07
-4.69433e+06, 6.72538e+06, 1.76238e+07
-4.62564e+06, 7.01061e+06, 1.75128e+07
-4.55413e+06, 7.29157e+06, 1.73978e+07
-4.47983e+06, 7.56809e+06, 1.72791e+07
-4.40279e+06, 7.83999e+06, 1.71581e+07
-4.32305e+06, 8.10712e+06, 1.70336e+07
-4.24067e+06, 8.36931e+06, 1.69061e+07
-4.15569e+06, 8.62639e+06, 1.6777e+07
-4.06816e+06, 8.87821e+06, 1.66455e+07
-3.97814e+06, 9.12462e+06, 1.65119e+07
-3.88569e+06, 9.36546e+06, 1.63765e+07
-3.79086e+06, 9.60059e+06, 1.62399e+07
-3.6937e+06, 9.82987e+06, 1.61027e+07
-3.59429e+06, 1.00531e+07, 1.59648e+07
-3.49267e+06, 1.02703e+07, 1.58263e+07
-3.38891e+06, 1.04812e+07, 1.56878e+07
-3.28307e+06, 1.06856e+07, 1.55496e+07
-3.17522e+06, 1.08836e+07, 1.54121e+07
-3.06543e+06, 1.10749e+07, 1.52755e+07
-2.95375e+06, 1.12595e+07, 1.51404e+07
-2.84026e+06, 1.14372e+07, 1.5007e+07
-2.72504e+06, 1.16079e+07, 1.48759e+07
-2.60814e+06, 1.17715e+07, 1.47472e+07
-2.48964e+06, 1.19279e+07, 1.46215e+07
-2.36961e+06, 1.2077e+07, 1.44991e+07
-2.24813e+06, 1.22188e+07, 1.43804e+07
-2.12526e+06, 1.23531e+07, 1.42658e+07
-2.0011e+06, 1.24799e+07, 1.41556e+07
-1.8757e+06, 1.2599e+07, 1.40502e+07
-1.74915e+06, 1.27105e+07, 1.39499e+07
-1.62152e+06, 1.28141e+07, 1.38551e+07
-1.4929e+06, 1.291e+07, 1.37662e+07
-1.36335e+06, 1.2998e+07, 1.3684e+07
-1.23297e+06, 1.3078e+07, 1.36085e+07
-1.10183e+06, 1.315e+07, 1.35397e+07
-970004, 1.3214e+07, 1.34779e+07
-837580, 1.327e+07, 1.34234e+07
-704638, 1.33178e+07, 1.33764e+07
-571259, 1.33575e+07, 1.33371e+07
-437523, 1.3389e+07, 1.33066e+07
-303514, 1.34123e+07, 1.3284e+07
-169311, 1.34274e+07, 1.32694e+07
-34998.9, 1.34344e+07, 1.3263e+07
99341.8, 1.34331e+07, 1.32647e+07
233629, 1.34236e+07, 1.32747e+07
367779, 1.34059e+07, 1.32937e+07
501712, 1.338e+07, 1.33206e+07
635345, 1.33459e+07, 1.33555e+07
768597, 1.33037e+07, 1.33981e+07
901385, 1.32533e+07, 1.34484e+07
1.03363e+06, 1.31948e+07, 1.35061e+07
1.16525e+06, 1.31283e+07, 1.35718e+07
1.29616e+06, 1.30537e+07, 1.36444e+07
1.42629e+06, 1.29712e+07, 1.37236e+07
1.55555e+06, 1.28807e+07, 1.38092e+07
1.68387e+06, 1.27823e+07, 1.39008e+07
1.81117e+06, 1.26761e+07, 1.39982e+07
1.93736e+06, 1.25622e+07, 1.41009e+07
2.06238e+06, 1.24406e+07, 1.42086e+07
2.18614e+06, 1.23113e+07, 1.43214e+07
2.30857e+06, 1.21746e+07, 1.44385e+07
2.4296e+06, 1.20304e+07, 1.45595e+07
2.54915e+06, 1.18788e+07, 1.4684e+07
