s(m), v_par(m/s), v_perp(m/s)
0, 1.81163e+06, 485425
18116.3, 1.81163e+06, 485442
36232.6, 1.81163e+06, 485460
54348.8, 1.81162e+06, 485477
72465, 1.81162e+06, 485495
90581.2, 1.81161e+06, 485512
108697, 1.8116e+06, 485530
126813, 1.81159e+06, 485571
144929, 1.81158e+06, 485623
163045, 1.81157e+06, 485676
181161, 1.81156e+06, 485729
199276, 1.81154e+06, 485781
217391, 1.81152e+06, 485834
235507, 1.81151e+06, 485898
253622, 1.81149e+06, 485986
271736, 1.81146e+06, 486073
289851, 1.81144e+06, 486161
307965, 1.81142e+06, 486248
326079, 1.81139e+06, 486336
344193, 1.81136e+06, 486423
362306, 1.81134e+06, 486546
380420, 1.81131e+06, 486668
398533, 1.81127e+06, 486790
416645, 1.81124e+06, 486913
434757, 1.81121e+06, 487035
452869, 1.81117e+06, 487157
470981, 1.81113e+06, 487303
489092, 1.81109e+06, 487460
507203, 1.81105e+06, 487617
525313, 1.81101e+06, 487774
543423, 1.81097e+06, 487931
561532, 1.81092e+06, 488088
579641, 1.81087e+06, 488256
597750, 1.81083e+06, 488448
615858, 1.81078e+06, 488640
633965, 1.81073e+06, 488831
652072, 1.81067e+06, 489022
670179, 1.81062e+06, 489214
688285, 1.81056e+06, 489405
706390, 1.81051e+06, 489631
724495, 1.81045e+06, 489856
742599, 1.81039e+06, 490082
760702, 1.81033e+06, 490308
778805, 1.81026e+06, 490533
796908, 1.8102e+06, 490758
815009, 1.81013e+06, 491006
833110, 1.81007e+06, 491266
851211, 1.81e+06, 491526
869310, 1.80993e+06, 491785
887409, 1.80986e+06, 492044
905507, 1.80978e+06, 492304
923605, 1.80971e+06, 492574
941702, 1.80963e+06, 492867
959797, 1.80955e+06, 493160
977893, 1.80947e+06, 493453
995987, 1.80939e+06, 493746
1.01408e+06, 1.80931e+06, 494038
1.03217e+06, 1.80923e+06, 494331
1.05027e+06, 1.80914e+06, 494657
1.06836e+06, 1.80906e+06, 494983
1.08645e+06, 1.80897e+06, 495309
1.10454e+06, 1.80888e+06, 495635
1.12262e+06, 1.80879e+06, 495961
1.14071e+06, 1.80869e+06, 496286
1.1588e+06, 1.8086e+06, 496633
1.17688e+06, 1.8085e+06, 496992
1.19497e+06, 1.80841e+06, 497351
1.21305e+06, 1.80831e+06, 497710
1.23113e+06, 1.80821e+06, 498068
1.24922e+06, 1.80811e+06, 498426
1.2673e+06, 1.808e+06, 498794
1.28538e+06, 1.8079e+06, 499185
1.30345e+06, 1.80779e+06, 499577
1.32153e+06, 1.80769e+06, 499967
1.33961e+06, 1.80758e+06, 500358
1.35768e+06, 1.80747e+06, 500748
1.37576e+06, 1.80736e+06, 501138
1.39383e+06, 1.80724e+06, 501560
1.4119e+06, 1.80713e+06, 501983
1.42997e+06, 1.80701e+06, 502405
1.44804e+06, 1.80689e+06, 502827
1.46611e+06, 1.80677e+06, 503249
1.48418e+06, 1.80665e+06, 503671
1.50224e+06, 1.80653e+06, 504112
1.52031e+06, 1.80641e+06, 504566
1.53837e+06, 1.80628e+06, 505020
1.55643e+06, 1.80616e+06, 505474
1.57449e+06, 1.80603e+06, 505927
1.59255e+06, 1.8059e+06, 506379
1.61061e+06, 1.80577e+06, 506840
1.62867e+06, 1.80564e+06, 507325
1.64673e+06, 1.8055e+06, 507810
1.66478e+06, 1.80537e+06, 508294
1.68283e+06, 1.80523e+06, 508777
1.70088e+06, 1.80509e+06, 509261
1.71893e+06, 1.80495e+06, 509743
1.73698e+06, 1.80481e+06, 510255
1.75503e+06, 1.80467e+06, 510770
1.77308e+06, 1.80452e+06, 511284
1.79112e+06, 1.80438e+06, 511798
1.80916e+06, 1.80423e+06, 512311
1.82721e+06, 1.80408e+06, 512824
1.84525e+06, 1.80393e+06, 513353
1.86328e+06, 1.80378e+06, 513898
1.88132e+06, 1.80362e+06, 514442
1.89936e+06, 1.80347e+06, 514985
1.91739e+06, 1.80331e+06, 515528
1.93542e+06, 1.80316e+06, 516070
1.95345e+06, 1.803e+06, 516617
1.97148e+06, 1.80284e+06, 517190
1.98951e+06, 1.80267e+06, 517763
2.00754e+06, 1.80251e+06, 518335
2.02556e+06, 1.80235e+06, 518907
2.04358e+06, 1.80218e+06, 519477
2.0616e+06, 1.80201e+06, 520048
2.07962e+06, 1.80184e+06, 520643
2.09764e+06, 1.80167e+06, 521244
2.11566e+06, 1.8015e+06, 521845
2.13367e+06, 1.80132e+06, 522445
2.15168e+06, 1.80115e+06, 523044
2.16969e+06, 1.80097e+06, 523642
2.1877e+06, 1.80079e+06, 524253
2.20571e+06, 1.80061e+06, 524882
2.22372e+06, 1.80043e+06, 525510
2.24172e+06, 1.80025e+06, 526138
2.25972e+06, 1.80007e+06, 526764
2.27772e+06, 1.79988e+06, 527390
2.29572e+06, 1.79969e+06, 528017
2.31371e+06, 1.7995e+06, 528673
2.33171e+06, 1.79931e+06, 529328
2.3497e+06, 1.79912e+06, 529983
2.36769e+06, 1.79893e+06, 530636
2.38568e+06, 1.79874e+06, 531289
2.40367e+06, 1.79854e+06, 531940
2.42165e+06, 1.79834e+06, 532613
2.43963e+06, 1.79814e+06, 533295
2.45761e+06, 1.79794e+06, 533975
2.47559e+06, 1.79774e+06, 534655
2.49357e+06, 1.79754e+06, 535334
2.51154e+06, 1.79733e+06, 536012
2.52951e+06, 1.79713e+06, 536698
2.54748e+06, 1.79692e+06, 537406
2.56545e+06, 1.79671e+06, 538112
2.58342e+06, 1.7965e+06, 538817
2.60138e+06, 1.79629e+06, 539522
2.61934e+06, 1.79607e+06, 540225
2.6373e+06, 1.79586e+06, 540928
2.65526e+06, 1.79564e+06, 541658
2.67322e+06, 1.79542e+06, 542389
2.69117e+06, 1.7952e+06, 543119
2.70912e+06, 1.79498e+06, 543849
2.72707e+06, 1.79476e+06, 544577
2.74502e+06, 1.79454e+06, 545304
2.76296e+06, 1.79431e+06, 546047
2.7809e+06, 1.79408e+06, 546803
2.79884e+06, 1.79386e+06, 547557
2.81678e+06, 1.79363e+06, 548311
2.83471e+06, 1.79339e+06, 549063
2.85265e+06, 1.79316e+06, 549815
2.87058e+06, 1.79293e+06, 550569
2.88851e+06, 1.79269e+06, 551349
2.90643e+06, 1.79245e+06, 552127
2.92435e+06, 1.79222e+06, 552904
2.94228e+06, 1.79198e+06, 553681
2.96019e+06, 1.79173e+06, 554455
2.97811e+06, 1.79149e+06, 555229
2.99602e+06, 1.79125e+06, 556024
3.01394e+06, 1.791e+06, 556825
3.03184e+06, 1.79075e+06, 557625
3.04975e+06, 1.7905e+06, 558425
3.06765e+06, 1.79025e+06, 559222
3.08556e+06, 1.79e+06, 560019
3.10345e+06, 1.78975e+06, 560824
3.12135e+06, 1.78949e+06, 561648
3.13924e+06, 1.78924e+06, 562470
3.15713e+06, 1.78898e+06, 563292
3.17502e+06, 1.78872e+06, 564112
3.19291e+06, 1.78846e+06, 564930
3.21079e+06, 1.7882e+06, 565748
3.22867e+06, 1.78793e+06, 566591
3.24655e+06, 1.78767e+06, 567435
3.26443e+06, 1.7874e+06, 568278
3.2823e+06, 1.78713e+06, 569120
3.30017e+06, 1.78687e+06, 569960
3.31804e+06, 1.78659e+06, 570799
3.3359e+06, 1.78632e+06, 571651
3.35376e+06, 1.78605e+06, 572516
3.37162e+06, 1.78577e+06, 573380
3.38948e+06, 1.7855e+06, 574243
3.40733e+06, 1.78522e+06, 575104
3.42518e+06, 1.78494e+06, 575964
3.44303e+06, 1.78466e+06, 576824
3.46088e+06, 1.78437e+06, 577710
3.47872e+06, 1.78409e+06, 578594
3.49656e+06, 1.7838e+06, 579477
3.51439e+06, 1.78352e+06, 580359
3.53223e+06, 1.78323e+06, 581239
3.55006e+06, 1.78294e+06, 582117
3.56789e+06, 1.78265e+06, 583012
3.58571e+06, 1.78236e+06, 583916
3.60353e+06, 1.78206e+06, 584819
3.62135e+06, 1.78177e+06, 585720
3.63917e+06, 1.78147e+06, 586620
3.65698e+06, 1.78117e+06, 587518
3.67479e+06, 1.78087e+06, 588420
3.6926e+06, 1.78057e+06, 589343
3.7104e+06, 1.78026e+06, 590265
3.72821e+06, 1.77996e+06, 591186
3.746e+06, 1.77965e+06, 592104
3.7638e+06, 1.77935e+06, 593021
3.78159e+06, 1.77904e+06, 593937
3.79938e+06, 1.77873e+06, 594872
3.81716e+06, 1.77842e+06, 595812
3.83495e+06, 1.7781e+06, 596751
3.85273e+06, 1.77779e+06, 597688
3.8705e+06, 1.77747e+06, 598623
3.88828e+06, 1.77715e+06, 599557
3.90605e+06, 1.77684e+06, 600498
3.92381e+06, 1.77651e+06, 601456
3.94158e+06, 1.77619e+06, 602413
3.95934e+06, 1.77587e+06, 603368
3.97709e+06, 1.77554e+06, 604321
3.99485e+06, 1.77522e+06, 605273
4.0126e+06, 1.77489e+06, 606223
4.03035e+06, 1.77456e+06, 607194
4.04809e+06, 1.77423e+06, 608168
4.06583e+06, 1.7739e+06, 609140
4.08357e+06, 1.77356e+06, 610111
4.1013e+06, 1.77323e+06, 611079
4.11903e+06, 1.77289e+06, 612046
4.13676e+06, 1.77256e+06, 613022
4.15448e+06, 1.77222e+06, 614013
4.1722e+06, 1.77187e+06, 615002
4.18992e+06, 1.77153e+06, 615989
4.20763e+06, 1.77119e+06, 616974
4.22534e+06, 1.77084e+06, 617958
4.24305e+06, 1.7705e+06, 618940
4.26075e+06, 1.77015e+06, 619944
4.27845e+06, 1.7698e+06, 620949
4.29615e+06, 1.76945e+06, 621952
4.31384e+06, 1.7691e+06, 622954
4.33153e+06, 1.76874e+06, 623954
4.34922e+06, 1.76839e+06, 624952
4.3669e+06, 1.76803e+06, 625959
4.38458e+06, 1.76767e+06, 626979
4.40225e+06, 1.76731e+06, 627998
4.41992e+06, 1.76695e+06, 629016
4.43759e+06, 1.76659e+06, 630031
4.45526e+06, 1.76622e+06, 631044
4.47292e+06, 1.76586e+06, 632056
4.49057e+06, 1.76549e+06, 633090
4.50823e+06, 1.76512e+06, 634124
4.52588e+06, 1.76475e+06, 635156
4.54352e+06, 1.76438e+06, 636186
4.56116e+06, 1.76401e+06, 637215
4.5788e+06, 1.76364e+06, 638241
4.59644e+06, 1.76326e+06, 639276
4.61407e+06, 1.76288e+06, 640325
4.63169e+06, 1.7625e+06, 641372
4.64932e+06, 1.76212e+06, 642417
4.66694e+06, 1.76174e+06, 643460
4.68455e+06, 1.76136e+06, 644501
4.70216e+06, 1.76098e+06, 645540
4.71977e+06, 1.76059e+06, 646600
4.73738e+06, 1.7602e+06, 647661
4.75498e+06, 1.75981e+06, 648719
4.77257e+06, 1.75942e+06, 649776
4.79016e+06, 1.75903e+06, 650831
4.80775e+06, 1.75864e+06, 651884
4.82534e+06, 1.75825e+06, 652945
4.84292e+06, 1.75785e+06, 654019
4.86049e+06, 1.75745e+06, 655091
4.87807e+06, 1.75705e+06, 656162
4.89563e+06, 1.75665e+06, 657230
4.9132e+06, 1.75625e+06, 658296
4.93076e+06, 1.75585e+06, 659361
4.94832e+06, 1.75544e+06, 660445
4.96587e+06, 1.75504e+06, 661530
4.98342e+06, 1.75463e+06, 662613
5.00096e+06, 1.75422e+06, 663695
5.0185e+06, 1.75381e+06, 664774
5.03604e+06, 1.7534e+06, 665851
5.05357e+06, 1.75299e+06, 666934
5.0711e+06, 1.75257e+06, 668032
5.08862e+06, 1.75216e+06, 669128
5.10614e+06, 1.75174e+06, 670222
5.12366e+06, 1.75132e+06, 671314
5.14117e+06, 1.7509e+06, 672404
5.15867e+06, 1.75048e+06, 673492
5.17618e+06, 1.75006e+06, 674596
5.19367e+06, 1.74963e+06, 675704
5.21117e+06, 1.74921e+06, 676810
5.22866e+06, 1.74878e+06, 677914
5.24614e+06, 1.74835e+06, 679016
5.26363e+06, 1.74792e+06, 680116
5.2811e+06, 1.74749e+06, 681218
5.29858e+06, 1.74705e+06, 682338
5.31604e+06, 1.74662e+06, 683456
5.33351e+06, 1.74618e+06, 684571
5.35097e+06, 1.74575e+06, 685685
5.36842e+06, 1.74531e+06, 686796
5.38587e+06, 1.74487e+06, 687905
5.40332e+06, 1.74443e+06, 689028
5.42076e+06, 1.74398e+06, 690157
5.4382e+06, 1.74354e+06, 691283
5.45563e+06, 1.74309e+06, 692408
5.47306e+06, 1.74265e+06, 693531
5.49049e+06, 1.7422e+06, 694651
5.50791e+06, 1.74175e+06, 695770
5.52532e+06, 1.74129e+06, 696910
5.54273e+06, 1.74084e+06, 698048
5.56014e+06, 1.74039e+06, 699183
5.57754e+06, 1.73993e+06, 700317
5.59494e+06, 1.73947e+06, 701448
5.61233e+06, 1.73901e+06, 702577
5.62972e+06, 1.73855e+06, 703714
5.6471e+06, 1.73809e+06, 704862
5.66448e+06, 1.73763e+06, 706008
5.68185e+06, 1.73716e+06, 707152
5.69922e+06, 1.7367e+06, 708293
5.71659e+06, 1.73623e+06, 709433
5.73395e+06, 1.73576e+06, 710570
5.7513e+06, 1.73529e+06, 711725
5.76865e+06, 1.73482e+06, 712880
5.786e+06, 1.73435e+06, 714034
5.80334e+06, 1.73387e+06, 715186
5.82068e+06, 1.7334e+06, 716335
5.83801e+06, 1.73292e+06, 717482
5.85533e+06, 1.73244e+06, 718632
5.87266e+06, 1.73196e+06, 719798
5.88997e+06, 1.73148e+06, 720961
5.90729e+06, 1.731e+06, 722122
5.92459e+06, 1.73051e+06, 723281
5.9419e+06, 1.73003e+06, 724438
5.95919e+06, 1.72954e+06, 725593
5.97649e+06, 1.72905e+06, 726758
5.99377e+06, 1.72856e+06, 727931
6.01106e+06, 1.72807e+06, 729101
6.02834e+06, 1.72758e+06, 730269
6.04561e+06, 1.72708e+06, 731435
6.06288e+06, 1.72659e+06, 732599
6.08014e+06, 1.72609e+06, 733761
6.0974e+06, 1.72559e+06, 734941
6.11465e+06, 1.72509e+06, 736120
6.1319e+06, 1.72459e+06, 737297
6.14914e+06, 1.72409e+06, 738472
6.16638e+06, 1.72358e+06, 739645
6.18362e+06, 1.72308e+06, 740815
6.20084e+06, 1.72257e+06, 741990
6.21807e+06, 1.72206e+06, 743178
6.23529e+06, 1.72155e+06, 744363
6.2525e+06, 1.72104e+06, 745547
6.26971e+06, 1.72053e+06, 746728
6.28691e+06, 1.72001e+06, 747906
6.30411e+06, 1.7195e+06, 749083
6.3213e+06, 1.71898e+06, 750271
6.33849e+06, 1.71846e+06, 751465
6.35567e+06, 1.71794e+06, 752657
6.37285e+06, 1.71742e+06, 753846
6.39002e+06, 1.7169e+06, 755033
6.40718e+06, 1.71638e+06, 756218
6.42434e+06, 1.71585e+06, 757400
6.4415e+06, 1.71532e+06, 758601
6.45865e+06, 1.7148e+06, 759800
6.4758e+06, 1.71427e+06, 760997
6.49294e+06, 1.71373e+06, 762192
6.51007e+06, 1.7132e+06, 763385
6.5272e+06, 1.71267e+06, 764575
6.54432e+06, 1.71213e+06, 765769
6.56144e+06, 1.7116e+06, 766976
6.57856e+06, 1.71106e+06, 768180
6.59566e+06, 1.71052e+06, 769383
6.61277e+06, 1.70998e+06, 770583
6.62986e+06, 1.70944e+06, 771780
6.64696e+06, 1.70889e+06, 772976
6.66404e+06, 1.70835e+06, 774181
6.68112e+06, 1.7078e+06, 775393
6.6982e+06, 1.70725e+06, 776603
6.71527e+06, 1.7067e+06, 777810
6.73233e+06, 1.70615e+06, 779015
6.74939e+06, 1.7056e+06, 780218
6.76644e+06, 1.70505e+06, 781418
6.78349e+06, 1.70449e+06, 782634
6.80053e+06, 1.70394e+06, 783850
6.81757e+06, 1.70338e+06, 785064
6.8346e+06, 1.70282e+06, 786276
6.85163e+06, 1.70226e+06, 787486
6.86865e+06, 1.7017e+06, 788693
6.88566e+06, 1.70114e+06, 789901
6.90267e+06, 1.70057e+06, 791124
6.91967e+06, 1.70001e+06, 792345
6.93667e+06, 1.69944e+06, 793563
6.95366e+06, 1.69887e+06, 794780
6.97065e+06, 1.6983e+06, 795994
6.98763e+06, 1.69773e+06, 797205
7.0046e+06, 1.69716e+06, 798422
7.02157e+06, 1.69658e+06, 799649
7.03853e+06, 1.69601e+06, 800874
7.05549e+06, 1.69543e+06, 802097
7.07244e+06, 1.69485e+06, 803317
7.08939e+06, 1.69427e+06, 804535
7.10633e+06, 1.69369e+06, 805751
7.12326e+06, 1.69311e+06, 806976
7.14019e+06, 1.69252e+06, 808207
7.15711e+06, 1.69194e+06, 809436
7.17403e+06, 1.69135e+06, 810662
7.19094e+06, 1.69076e+06, 811886
7.20784e+06, 1.69017e+06, 813108
7.22474e+06, 1.68958e+06, 814328
7.24163e+06, 1.68899e+06, 815561
7.25852e+06, 1.6884e+06, 816795
7.2754e+06, 1.6878e+06, 818028
7.29228e+06, 1.6872e+06, 819258
7.30915e+06, 1.68661e+06, 820485
7.32601e+06, 1.68601e+06, 821711
7.34287e+06, 1.68541e+06, 822934
7.35972e+06, 1.68481e+06, 824174
7.37656e+06, 1.6842e+06, 825412
7.3934e+06, 1.6836e+06, 826647
7.41023e+06, 1.68299e+06, 827881
7.42706e+06, 1.68238e+06, 829111
7.44388e+06, 1.68177e+06, 830340
7.4607e+06, 1.68116e+06, 831570
7.47751e+06, 1.68055e+06, 832813
7.49431e+06, 1.67994e+06, 834054
7.5111e+06, 1.67933e+06, 835293
7.52789e+06, 1.67871e+06, 836529
7.54468e+06, 1.67809e+06, 837763
7.56146e+06, 1.67747e+06, 838994
7.57823e+06, 1.67685e+06, 840231
7.59499e+06, 1.67623e+06, 841476
7.61175e+06, 1.67561e+06, 842720
7.62851e+06, 1.67499e+06, 843961
7.64525e+06, 1.67436e+06, 845200
7.66199e+06, 1.67373e+06, 846437
7.67873e+06, 1.67311e+06, 847671
7.69546e+06, 1.67248e+06, 848913
7.71218e+06, 1.67185e+06, 850161
7.72889e+06, 1.67121e+06, 851408
7.7456e+06, 1.67058e+06, 852651
7.7623e+06, 1.66995e+06, 853893
7.779e+06, 1.66931e+06, 855132
7.79569e+06, 1.66867e+06, 856369
7.81237e+06, 1.66803e+06, 857616
7.82905e+06, 1.66739e+06, 858866
7.84572e+06, 1.66675e+06, 860115
7.86239e+06, 1.66611e+06, 861361
7.87904e+06, 1.66546e+06, 862605
7.89569e+06, 1.66482e+06, 863846
7.91234e+06, 1.66417e+06, 865086
7.92898e+06, 1.66352e+06, 866336
7.94561e+06, 1.66287e+06, 867589
7.96224e+06, 1.66222e+06, 868840
7.97885e+06, 1.66157e+06, 870088
7.99547e+06, 1.66091e+06, 871334
8.01207e+06, 1.66026e+06, 872578
8.02867e+06, 1.6596e+06, 873819
8.04526e+06, 1.65894e+06, 875073
8.06185e+06, 1.65828e+06, 876328
8.07843e+06, 1.65762e+06, 877581
8.095e+06, 1.65696e+06, 878831
8.11157e+06, 1.6563e+06, 880079
8.12813e+06, 1.65563e+06, 881324
8.14468e+06, 1.65497e+06, 882567
8.16123e+06, 1.6543e+06, 883825
8.17777e+06, 1.65363e+06, 885081
8.1943e+06, 1.65296e+06, 886335
8.21083e+06, 1.65229e+06, 887587
8.22735e+06, 1.65161e+06, 888837
8.24386e+06, 1.65094e+06, 890084
8.26037e+06, 1.65026e+06, 891329
8.27687e+06, 1.64959e+06, 892589
8.29336e+06, 1.64891e+06, 893847
8.30984e+06, 1.64823e+06, 895102
8.32632e+06, 1.64755e+06, 896355
8.34279e+06, 1.64687e+06, 897607
8.35926e+06, 1.64618e+06, 898855
8.37572e+06, 1.6455e+06, 900102
8.39217e+06, 1.64481e+06, 901364
8.40861e+06, 1.64412e+06, 902623
8.42505e+06, 1.64343e+06, 903880
8.44148e+06, 1.64274e+06, 905134
8.45791e+06, 1.64205e+06, 906386
8.47432e+06, 1.64136e+06, 907637
8.49073e+06, 1.64066e+06, 908885
8.50714e+06, 1.63997e+06, 910147
8.52353e+06, 1.63927e+06, 911408
8.53992e+06, 1.63857e+06, 912666
8.5563e+06, 1.63787e+06, 913921
8.57268e+06, 1.63717e+06, 915175
8.58905e+06, 1.63647e+06, 916426
8.60541e+06, 1.63576e+06, 917675
8.62176e+06, 1.63506e+06, 918939
8.63811e+06, 1.63435e+06, 920200
8.65445e+06, 1.63364e+06, 921459
8.67078e+06, 1.63293e+06, 922716
8.68711e+06, 1.63222e+06, 923970
8.70343e+06, 1.63151e+06, 925222
8.71974e+06, 1.6308e+06, 926472
8.73604e+06, 1.63008e+06, 927736
8.75234e+06, 1.62937e+06, 928998
8.76863e+06, 1.62865e+06, 930258
8.78491e+06, 1.62793e+06, 931515
8.80119e+06, 1.62721e+06, 932770
8.81746e+06, 1.62649e+06, 934023
8.83372e+06, 1.62577e+06, 935274
8.84997e+06, 1.62504e+06, 936538
8.86622e+06, 1.62432e+06, 937800
8.88246e+06, 1.62359e+06, 939060
8.89869e+06, 1.62286e+06, 940318
8.91492e+06, 1.62213e+06, 941574
8.93113e+06, 1.6214e+06, 942827
8.94734e+06, 1.62067e+06, 944079
8.96355e+06, 1.61994e+06, 945342
8.97974e+06, 1.6192e+06, 946605
8.99593e+06, 1.61847e+06, 947866
9.01211e+06, 1.61773e+06, 949124
9.02829e+06, 1.61699e+06, 950380
9.04445e+06, 1.61625e+06, 951634
9.06061e+06, 1.61551e+06, 952886
9.07676e+06, 1.61477e+06, 954148
9.09291e+06, 1.61402e+06, 955411
9.10904e+06, 1.61328e+06, 956672
9.12517e+06, 1.61253e+06, 957930
9.14129e+06, 1.61178e+06, 959187
9.15741e+06, 1.61103e+06, 960441
9.17351e+06, 1.61028e+06, 961693
9.18961e+06, 1.60953e+06, 962953
9.20571e+06, 1.60878e+06, 964217
9.22179e+06, 1.60802e+06, 965478
9.23787e+06, 1.60727e+06, 966736
9.25393e+06, 1.60651e+06, 967993
9.27e+06, 1.60575e+06, 969247
9.28605e+06, 1.60499e+06, 970499
9.3021e+06, 1.60423e+06, 971757
9.31813e+06, 1.60347e+06, 973021
9.33416e+06, 1.6027e+06, 974281
9.35019e+06, 1.60194e+06, 975540
9.3662e+06, 1.60117e+06, 976796
9.38221e+06, 1.60041e+06, 978051
9.39821e+06, 1.59964e+06, 979303
9.4142e+06, 1.59887e+06, 980558
9.43019e+06, 1.5981e+06, 981821
9.44617e+06, 1.59732e+06, 983082
9.46214e+06, 1.59655e+06, 984341
9.4781e+06, 1.59577e+06, 985597
9.49405e+06, 1.595e+06, 986851
9.51e+06, 1.59422e+06, 988103
9.52594e+06, 1.59344e+06, 989355
9.54187e+06, 1.59266e+06, 990618
9.55779e+06, 1.59188e+06, 991878
9.5737e+06, 1.59109e+06, 993136
9.58961e+06, 1.59031e+06, 994392
9.60551e+06, 1.58952e+06, 995646
9.6214e+06, 1.58873e+06, 996897
9.63728e+06, 1.58795e+06, 998147
9.65316e+06, 1.58716e+06, 999409
9.66903e+06, 1.58636e+06, 1.00067e+06
9.68489e+06, 1.58557e+06, 1.00193e+06
9.70074e+06, 1.58478e+06, 1.00318e+06
9.71658e+06, 1.58398e+06, 1.00443e+06
9.73242e+06, 1.58319e+06, 1.00569e+06
9.74825e+06, 1.58239e+06, 1.00693e+06
9.76407e+06, 1.58159e+06, 1.00819e+06
9.77988e+06, 1.58079e+06, 1.00945e+06
9.79568e+06, 1.57999e+06, 1.01071e+06
9.81148e+06, 1.57919e+06, 1.01196e+06
9.82727e+06, 1.57838e+06, 1.01322e+06
9.84305e+06, 1.57758e+06, 1.01447e+06
9.85882e+06, 1.57677e+06, 1.01571e+06
9.87458e+06, 1.57596e+06, 1.01697e+06
9.89034e+06, 1.57515e+06, 1.01823e+06
9.90608e+06, 1.57434e+06, 1.01948e+06
9.92182e+06, 1.57353e+06, 1.02074e+06
9.93755e+06, 1.57272e+06, 1.02199e+06
9.95328e+06, 1.5719e+06, 1.02324e+06
9.96899e+06, 1.57109e+06, 1.02449e+06
9.9847e+06, 1.57027e+06, 1.02573e+06
1.00004e+07, 1.56945e+06, 1.02699e+06
1.00161e+07, 1.56863e+06, 1.02825e+06
1.00318e+07, 1.56781e+06, 1.0295e+06
1.00474e+07, 1.56699e+06, 1.03075e+06
1.00631e+07, 1.56617e+06, 1.032e+06
1.00788e+07, 1.56534e+06, 1.03325e+06
1.00944e+07, 1.56452e+06, 1.03449e+06
1.01101e+07, 1.56369e+06, 1.03575e+06
1.01257e+07, 1.56286e+06, 1.037e+06
1.01413e+07, 1.56203e+06, 1.03825e+06
1.01569e+07, 1.5612e+06, 1.0395e+06
1.01725e+07, 1.56037e+06, 1.04075e+06
1.01881e+07, 1.55953e+06, 1.042e+06
1.02037e+07, 1.5587e+06, 1.04324e+06
1.02193e+07, 1.55786e+06, 1.04449e+06
1.02349e+07, 1.55702e+06, 1.04574e+06
1.02505e+07, 1.55619e+06, 1.04699e+06
1.0266e+07, 1.55535e+06, 1.04824e+06
1.02816e+07, 1.5545e+06, 1.04949e+06
1.02971e+07, 1.55366e+06, 1.05073e+06
1.03126e+07, 1.55282e+06, 1.05198e+06
1.03282e+07, 1.55197e+06, 1.05322e+06
1.03437e+07, 1.55113e+06, 1.05447e+06
1.03592e+07, 1.55028e+06, 1.05572e+06
1.03747e+07, 1.54943e+06, 1.05697e+06
1.03902e+07, 1.54858e+06, 1.05821e+06
1.04057e+07, 1.54773e+06, 1.05946e+06
1.04211e+07, 1.54687e+06, 1.0607e+06
1.04366e+07, 1.54602e+06, 1.06194e+06
1.0452e+07, 1.54517e+06, 1.06318e+06
1.04675e+07, 1.54431e+06, 1.06443e+06
1.04829e+07, 1.54345e+06, 1.06568e+06
